subject,window,window_index,status,status_name,label_major,t_start_sec,t_end_sec,major_ratio,bvp_missing_ratio,acc_missing_ratio,missing_flag,flatline_flag,clipping_ratio,clipping_flag,n_peaks,peak_sparse_flag,ibi_pass_ratio,valid_beat_ratio,ibi_plausibility,ibi_mean_sec,median_template_corr,notch_foot_peak_detectability,acc_diff_mean,acc_diff_exceed_ratio,acc_diff_flag,psd_corr_x,psd_corr_y,psd_corr_z,psd_corr_mag,psd_corr_max,psd_corr_flag,motion_score_raw,motion_score,SQI_stress_basic,SQI_stress_morph,hard_reject,motion_threshold_subject_p80,qc_relaxed_pass,TPV22,TPV9,TPV4,TPV2,TPV0,TPV28,TPV8,TPV19,TPV14,TPV26,TPV11,acc_diff_threshold_subject,acc_diff_flag_subject
S10,window1,1,0,baseline,1,120.0,180.0,1.0,0.0,0.0,0,0,0.0216145833333333,0,91,0,1.0,0.7666666666666667,1.0,0.6638888888888889,0.9635779305576436,1.0,0.4764614105224609,0.5033871808233454,1,0.7440919792622503,0.8276812172509204,0.655674290554356,0.7017147796105332,0.8276812172509204,0,0.5780583620071411,0.5780583620071411,0.7379342096332457,0.3428361206322698,1,1.0,0,966.0,0.0049349768087267,0.0060886833816766,0.0414830148220062,0.0353943295776844,0.0086816623806953,0.001899229362607,0.0143232559785246,0.0119193196296691,5.86156177520752,26.19812393188477,1.3115599155426025,0
S10,window2,2,0,baseline,1,180.0,240.0,1.0,0.0,0.0,0,0,0.02109375,0,95,0,1.0,0.8723404255319149,1.0,0.6316489361702128,0.988654171181646,1.0,0.4095671474933624,0.276706618030224,1,0.771530647332469,0.7957953505463166,0.6559857837557562,0.6145144968373115,0.7957953505463166,0,0.6646443605422974,0.6646443605422974,0.77906798551303,0.2942213099126884,1,1.0,0,906.0,0.0031651135068386,0.0054929261095821,0.04128123447299,0.0357883088290691,0.0084541179239749,0.0012497589923441,0.0104011632502079,0.0087544480338692,5.543713092803955,31.082847595214844,1.3115599155426025,0
S10,window3,3,0,baseline,1,240.0,300.0,1.0,0.0,0.0,0,0,0.0221354166666666,0,98,0,1.0,0.8969072164948454,1.0,0.6121134020618557,0.9848194924972908,0.998960256576538,0.1936546117067337,0.273058884835852,1,0.6824516176650709,0.465314768180755,0.618098293549804,0.0335968410628132,0.6824516176650709,0,0.2121333926916122,0.2121333926916122,0.8329953950779642,0.7528837095252985,1,1.0,0,937.0,0.0056926365941762,0.0066872094757854,0.0425803363323211,0.0358931273221969,0.0090863704681396,0.0025711767375469,0.0234192460775375,0.019176522269845,5.85935640335083,65.9618911743164,1.3115599155426025,0
S10,window4,4,0,baseline,1,300.0,360.0,1.0,0.0,0.0,0,0,0.0205729166666666,0,97,0,1.0,0.90625,1.0,0.6188151041666666,0.9651828104953686,1.0,0.461210548877716,0.5184992183428869,1,0.562681124193753,0.7071582952325448,0.5177532580735291,0.4648058025633163,0.7071582952325448,0,0.773216724395752,0.773216724395752,0.7747331707090354,0.1899539782280901,1,1.0,0,959.0,0.0047265854664146,0.005648395512253,0.0423758439719677,0.0367274470627307,0.00769629701972,0.0021863612346351,0.0175516512244939,0.0144703332334756,5.852874279022217,64.34534454345703,1.3115599155426025,0
S10,window5,5,0,baseline,1,360.0,420.0,1.0,0.0,0.0,0,0,0.0216145833333333,0,96,0,1.0,0.7789473684210526,1.0,0.6223684210526316,0.9325638457652036,0.9581897854804992,0.55794358253479,0.4919228764981761,1,0.7820360075711055,0.7024149392159098,0.5938166505096393,0.6720271131485873,0.7820360075711055,0,0.6778569221496582,0.6778569221496582,0.7235624088830164,0.2285156961880832,1,1.0,0,944.0,0.0032368963584303,0.0052094268612563,0.0384133569896221,0.0332039296627044,0.0079099433496594,0.0013262471184134,0.0095094200223684,0.0079002697020769,5.6092376708984375,69.71685028076172,1.3115599155426025,0
S10,window6,6,0,baseline,1,420.0,480.0,1.0,0.0,0.0,0,0,0.02265625,0,103,0,1.0,0.8725490196078431,1.0,0.5776654411764706,0.9711584430206815,0.9917521476745604,0.6060914993286133,0.5372589890568004,1,0.6825923855519483,0.6540862484105958,0.5971133992253062,0.6521459804529243,0.6825923855519483,0,0.7205711007118225,0.7205711007118225,0.7683100306781596,0.231921252844341,1,1.0,0,912.0,0.0036741001531481,0.0064700441434979,0.03956900537014,0.0330989621579647,0.0098299412056803,0.00161176151596,0.0118692833930253,0.0100876092910766,5.528491973876953,63.41962432861328,1.3115599155426025,0
S10,window7,7,0,baseline,1,480.0,540.0,1.0,0.0,0.0,0,0,0.0216145833333333,0,86,0,0.976470588235294,0.7529411764705882,0.976470588235294,0.6996323529411764,0.7756971086805947,0.975342571735382,0.6662099361419678,0.539343408025013,1,0.8743428465316754,0.8211332218391239,0.8451495779804903,0.8529058101195919,0.8743428465316754,0,1.0090755224227903,1.0,0.6291797208394726,-0.1410636093077705,1,1.0,0,923.0,0.0034864624030888,0.0058916555717587,0.0393476337194442,0.0334559790790081,0.0089839184656739,0.0014670444652438,0.0095701459795236,0.0077531086280941,5.591190814971924,27.36176300048828,1.3115599155426025,0
S10,window8,8,0,baseline,1,540.0,600.0,1.0,0.0,0.0,0,0,0.0216145833333333,0,100,0,1.0,0.9494949494949496,1.0,0.601010101010101,0.9774795144653744,1.0,0.8464753031730652,0.5888483585200626,1,0.7018557188783832,0.8451775909627746,0.7101330233550514,0.4326188675855196,0.8451775909627746,0,1.3975465297698977,1.0,0.7730418341375921,-0.0207816365351716,1,1.0,0,912.0,0.0046072010882198,0.0073371934704482,0.0461953431367874,0.0388581492006778,0.0108782248571515,0.0020905365236103,0.0164175070822238,0.0137403029948472,5.567196369171143,72.10059356689453,1.3115599155426025,0
S10,window9,9,0,baseline,1,600.0,660.0,1.0,0.0,0.0,0,0,0.0216145833333333,0,99,0,1.0,0.8163265306122449,1.0,0.6050701530612245,0.9376922280487884,0.9743512272834778,1.3079230785369873,0.6873371547681084,1,0.7327496897886144,0.8492226187767775,0.7766334024183418,0.6352258191681501,0.8492226187767775,0,1.9325796365737915,1.0,0.7078382806595344,-0.07709117698326,1,1.0,0,986.0,0.005119280423969,0.0058325752615928,0.0403405986726284,0.0345080234110355,0.0080562615767121,0.0020830980502068,0.0171669591218233,0.0143161285668611,5.930973052978516,77.78238677978516,1.3115599155426025,0
S10,window12,12,0,baseline,1,780.0,840.0,1.0,0.0,0.0,0,0,0.0221354166666666,0,89,0,0.9886363636363636,0.8181818181818182,0.9886363636363636,0.6750710227272727,0.8992756516380699,1.0,0.7587186098098755,0.6565919749869724,1,0.7361348290849486,0.6394049901325254,0.7048843084858015,0.6433533724206011,0.7361348290849486,0,1.1041884422302246,1.0,0.694782695491421,-0.0819992689086643,1,1.0,0,970.0,0.0060143265873193,0.007878029718995,0.0487219393253326,0.0408439077436924,0.0114638460800051,0.0024291793815791,0.0192929096519947,0.0156455636024475,5.719175338745117,53.11857986450195,1.3115599155426025,0
S10,window13,13,0,baseline,1,840.0,900.0,1.0,0.0,0.0,0,0,0.02265625,0,88,0,0.9770114942528736,0.735632183908046,0.9770114942528736,0.6799568965517241,0.7669238210668112,0.9536418318748474,1.035012125968933,0.6086503387180824,1,0.7441995123302473,0.8843359917467214,0.6599450230627938,0.7801861035847125,0.8843359917467214,0,1.2675840854644775,1.0,0.6197323187338365,-0.1537666327415968,1,1.0,0,934.0,0.008087245747447,0.0081992018967866,0.0470655784010887,0.0388663746416568,0.0111689902842044,0.0028785900212824,0.0265061911195516,0.0218887962400913,5.962247848510742,14.628581047058104,1.3115599155426025,0
S10,window14,14,0,baseline,1,900.0,960.0,1.0,0.0,0.0,0,0,0.0221354166666666,0,95,0,1.0,0.851063829787234,1.0,0.6298204787234043,0.9291311238913024,1.0,0.5301247239112854,0.3621677957269411,1,0.6666665423028235,0.7643503921151565,0.7496112167398807,0.6991201451237608,0.7643503921151565,0,0.8441691398620605,0.8441691398620605,0.7347479550960783,0.0934327900469352,1,1.0,0,959.0,0.0045661893673241,0.0069311447441577,0.0447341725230217,0.0378030240535736,0.010247359983623,0.0021500382572412,0.0161185041069984,0.0135486051440238,5.617876529693604,121.20600128173828,1.3115599155426025,0
S10,window15,15,0,baseline,1,960.0,1020.0,1.0,0.0,0.0,0,0,0.0216145833333333,0,90,0,1.0,0.9325842696629212,1.0,0.6702949438202247,0.9851223062446506,1.0,0.1624821871519088,0.252735799895779,1,0.6434672923309228,0.6500141576270981,0.432863785785075,0.3957847080113357,0.6500141576270981,0,0.189078077673912,0.189078077673912,0.8496625919711724,0.786977779786127,1,1.0,0,901.0,0.0052767917513847,0.0061516952700912,0.0410822741687297,0.0349305756390094,0.0079979123547673,0.0027255788445472,0.0224111396819353,0.0186065100133419,5.972594738006592,30.190975189208984,1.3115599155426025,0
S10,window16,16,0,baseline,1,1020.0,1080.0,1.0,0.0,0.0,0,0,0.0205729166666666,0,95,0,1.0,0.9893617021276596,1.0,0.6308178191489362,0.9786382738494634,1.0,0.378560721874237,0.3903074517978113,1,0.5690833912900614,0.320878920350682,0.5651034890735313,0.6413777934516627,0.6413777934516627,0,0.5725576877593994,0.5725576877593994,0.8320803942299629,0.4189103913412644,1,1.0,0,884.0,0.0042138313874602,0.0077007706277072,0.0543764531612396,0.046675682067871,0.0119079267606139,0.0019766800105571,0.016300193965435,0.0132830487564206,5.307644367218018,112.95993041992188,1.3115599155426025,0
S10,window17,17,0,baseline,1,1080.0,1140.0,1.0,0.0,0.0,0,0,0.02109375,0,102,0,1.0,0.9504950495049505,1.0,0.5895730198019802,0.9694647103641848,0.9960647821426392,0.5252619981765747,0.3590411672746222,1,0.8647249355097837,0.8072604904244205,0.8045591293967412,0.6181416828680752,0.8647249355097837,0,0.9078391790390016,0.9078391790390016,0.7802535150073354,0.0686917089391896,1,1.0,0,927.0,0.0024511897936463,0.0058203591033816,0.0385275334119796,0.0327071733772754,0.0095182545483112,0.0011146031320095,0.0090476600453257,0.0077206538990139,5.146522521972656,72.11927795410156,1.3115599155426025,0
S10,window18,18,0,baseline,1,1140.0,1200.0,1.0,0.0,0.0,0,0,0.0221354166666666,0,93,0,1.0,0.8260869565217391,1.0,0.6462296195652174,0.9441794471775568,1.0,1.0750102996826172,0.6508598228243877,1,0.775454057985679,0.733203154471963,0.7725209289297373,0.4906636645793226,0.775454057985679,0,1.8808491230010984,1.0,0.7136886167619626,-0.066129051249089,1,1.0,0,921.0,0.00570800434798,0.006563410628587,0.0421384684741497,0.0355750583112239,0.008819599635899,0.0025997385382652,0.0205257628113031,0.0175866112112998,5.9513020515441895,33.26953125,1.3115599155426025,0
S10,window19,19,0,baseline,1,1200.0,1260.0,1.0,0.0,0.0,0,0,0.02109375,0,101,0,1.0,0.87,1.0,0.5953125,0.975141349885762,1.0,0.7862087488174438,0.6102136529442418,1,0.6307927272704229,0.7261040102684904,0.7298960960836502,0.7538633311915511,0.7538633311915511,0,1.0932884216308594,1.0,0.7405424049657287,-0.0452146625285594,1,1.0,0,866.0,0.0063551380299031,0.0075865667313337,0.0489883199334144,0.0414017550647258,0.0105580957606434,0.0026965152937918,0.0214729234576225,0.0179696045815944,5.747260570526123,89.08979797363281,1.3115599155426025,0
S10,window22,22,1,stress,2,3360.0,3420.0,1.0,0.0,0.0,0,0,0.02109375,0,99,0,1.0,0.8061224489795918,1.0,0.5980548469387755,0.820048012172848,0.9035977721214294,1.0651530027389526,0.5320479416362689,1,-0.4827919721038236,0.7067692218980393,0.8673126383033517,-0.2939066341814597,0.8673126383033517,0,2.218050479888916,1.0,0.6684633832436911,-0.1272518192325531,1,1.0,0,918.0,0.0053663682192564,0.0071310820057988,0.0449405051767826,0.037809420377016,0.0102198217064142,0.0022005380596965,0.0167041812092065,0.0138017293065786,5.734622955322266,93.03900146484376,1.3115599155426025,0
S10,window23,23,1,stress,2,3420.0,3480.0,1.0,0.0,0.0,0,0,0.0216145833333333,0,103,0,1.0,0.6862745098039216,1.0,0.5787377450980392,0.7725318036153257,0.8964257836341858,1.0514315366744995,0.5523710265763419,1,-0.0284638666454264,0.6581574558916571,0.7290924168073246,0.0461251516218177,0.7290924168073246,0,2.347795009613037,1.0,0.6062693450061664,-0.1768782502464456,1,1.0,0,943.0,0.0042303544469177,0.0064779347740113,0.0445770248770713,0.0380990877747535,0.0094372387975454,0.00215136539191,0.0170486122369766,0.0139252208173275,5.542977333068848,171.6593017578125,1.3115599155426025,0
S10,window24,24,1,stress,2,3480.0,3540.0,1.0,0.0,0.0,0,0,0.0216145833333333,0,98,0,1.0,0.8350515463917526,1.0,0.6105025773195877,0.8495608423707416,0.93021959066391,0.8824843168258667,0.426784783741532,1,0.7730697829797006,0.6695474134493692,0.8086313713472211,0.8568148114685299,0.8568148114685299,0,2.061665296554565,1.0,0.6888888712679236,-0.1045394278238114,1,1.0,0,979.0,0.0044448841363191,0.0055755130015313,0.0427262969315052,0.0371507816016674,0.0076826908625662,0.0021746531128883,0.0159246884286403,0.013289863243699,5.85188627243042,125.80126190185548,1.3115599155426025,0
S10,window25,25,1,stress,2,3540.0,3600.0,1.0,0.0,0.0,0,0,0.0213541666666666,0,98,0,1.0,0.8762886597938144,1.0,0.6140463917525774,0.838512179164128,0.8587006032466888,0.622002899646759,0.5455966649296509,1,-0.063667296486095,0.7239062179283232,0.7850672321772527,-0.6327916460538686,0.7850672321772527,0,0.9256017804145812,0.9256017804145812,0.7095089396253061,-0.0384119868737327,1,1.0,0,970.0,0.0030493633821606,0.0062606483697891,0.0430018194019794,0.0367411710321903,0.0099221812561154,0.001368447439745,0.0104158613830804,0.0085667958483099,5.36549186706543,63.1867561340332,1.3115599155426025,0
S10,window26,26,1,stress,2,3600.0,3660.0,1.0,0.0,0.0,0,0,0.0208333333333333,0,103,0,1.0,0.7647058823529411,1.0,0.5845588235294118,0.7376587133636574,0.9080756902694702,0.5241997241973877,0.4179260031266285,1,0.1466626037092187,0.7492487711814455,0.6314077921851278,0.0352828785155249,0.7492487711814455,0,1.316064715385437,1.0,0.6271799669502737,-0.1591546343858357,1,1.0,0,965.0,0.0048140324652194,0.0058392793871462,0.0416044034063816,0.0357651226222515,0.0078398501500487,0.0024677268229424,0.0190345905721187,0.0154769886285066,5.841882228851318,153.5889434814453,1.3115599155426025,0
S10,window27,27,1,stress,2,3660.0,3720.0,1.0,0.0,0.0,0,0,0.021875,0,106,0,1.0,0.9047619047619048,1.0,0.5632440476190477,0.9063317214410348,0.9676539301872252,0.1022043079137802,0.2402292860865033,1,-0.1856510711293454,0.1409806471790713,0.3093969388756697,0.0089996647789789,0.3093969388756697,0,0.1069288626313209,0.1069288626313209,0.8231113920739404,0.8329961217043156,1,1.0,0,967.0,0.0076973000541329,0.007903030142188,0.0478209592401981,0.0399179272353649,0.0095262071117758,0.0041529592126607,0.0327418781816959,0.027817778289318,6.207658767700195,22.984066009521484,1.3115599155426025,0
S10,window28,28,1,stress,2,3720.0,3780.0,1.0,0.0,0.0,0,0,0.0213541666666666,0,103,0,1.0,0.803921568627451,1.0,0.5758272058823529,0.8151480376364342,0.9154745936393738,0.4472268223762512,0.3793642522146951,1,0.0831364248278116,0.453477780111974,0.7241889928407083,-0.5477944828924836,0.7241889928407083,0,0.6906446218490601,0.6906446218490601,0.6970485765570046,0.1831875065581272,1,1.0,0,926.0,0.0062801763415336,0.007461124099791,0.050382450222969,0.0429213233292102,0.0102223865687847,0.0026549673639237,0.0205027181655168,0.0167681165039539,5.862689018249512,65.94587707519531,1.3115599155426025,0
S10,window29,29,1,stress,2,3780.0,3840.0,1.0,0.0,0.0,0,0,0.0223958333333333,0,96,0,1.0,0.8315789473684211,1.0,0.6259868421052631,0.9160368792606304,0.9465643763542176,0.3916764855384826,0.5997915581031787,1,-0.4059701451494277,0.0226803203343084,0.6147547151413207,-0.3127017104784677,0.6147547151413207,0,0.5869584083557129,0.5869584083557129,0.7487468018899861,0.3281655897585254,1,1.0,0,947.0,0.0061204535886645,0.0072191311046481,0.0468919873237609,0.0396728552877903,0.009493688121438,0.0030097812414169,0.0250551886856555,0.0209168959408998,5.973315715789795,80.19669342041016,1.3115599155426025,0
S10,window30,30,1,stress,2,3840.0,3900.0,1.0,0.0,0.0,0,0,0.0221354166666666,0,97,0,1.0,0.7604166666666666,1.0,0.6144205729166666,0.8341387746826572,0.9305219650268556,0.6511131525039673,0.5747785304846275,1,0.3040257096454721,0.6248682680879113,0.3216309746348232,-0.2341380424314401,0.6248682680879113,0,1.2527073621749878,1.0,0.6544082990714638,-0.1307098150726218,1,1.0,0,961.0,0.0067030349746346,0.0077125327661633,0.0481425672769546,0.0404300317168235,0.0105948150157928,0.0030618775635957,0.024486755952239,0.0202030409127473,5.848573207855225,64.10542297363281,1.3115599155426025,0
S10,window32,32,2,meditation,4,4980.0,5040.0,1.0,0.0,0.0,0,0,0.0247395833333333,0,76,0,1.0,0.9333333333333332,1.0,0.7829166666666667,0.9163924670529504,0.4267874658107757,0.4235692322254181,0.7264200104220948,1,-0.1773900671980881,0.1207116897551184,0.0804391251129379,-0.1526080664429109,0.1207116897551184,0,0.3777764141559601,0.3777764141559601,0.8104734320336225,0.4380185690599714,1,1.0,0,943.0,0.0059286542236804,0.0059915944002568,0.036264918744564,0.0302733238786458,0.0069260336458683,0.0034004840999841,0.0279551465064287,0.0228581074625253,6.216527462005615,110.22541809082033,1.3115599155426025,0
S10,window33,33,2,meditation,4,5040.0,5100.0,1.0,0.0,0.0,0,0,0.0244791666666666,0,77,0,1.0,0.9605263157894736,1.0,0.7835115131578947,0.9178564274353102,0.4488066732883453,0.4070274531841278,0.7180823345492444,1,-0.0497112322638819,0.1885021471150783,0.3088880308170801,-0.0834393944956701,0.3088880308170801,0,0.376482218503952,0.376482218503952,0.8219192326959873,0.4533414514138039,1,1.0,0,890.0,0.0064053889364004,0.0056834635324776,0.0343359932303428,0.0286525283008813,0.0066181290894746,0.0030630636028945,0.0268988497555255,0.0222298093140125,6.141435623168945,140.4866943359375,1.3115599155426025,0
S10,window34,34,2,meditation,4,5100.0,5160.0,1.0,0.0,0.0,0,0,0.02265625,0,79,0,1.0,0.8461538461538461,1.0,0.7548076923076923,0.7520026511229934,0.7760635018348694,0.3414237201213836,0.655549765502866,1,-0.0749679624240043,0.173840925459017,0.3256275591294145,-0.0685641165711876,0.3256275591294145,0,0.2764971554279327,0.2764971554279327,0.7364126182556432,0.5593655366576868,1,1.0,0,923.0,0.006580913439393,0.0062879314646124,0.0381243415176868,0.0318364091217517,0.0072452826425433,0.0035986173897981,0.0273927543312311,0.0228757690638303,6.208874702453613,62.08466339111328,1.3115599155426025,0
S10,window35,35,2,meditation,4,5160.0,5220.0,1.0,0.0,0.0,0,0,0.02265625,0,80,0,1.0,0.8354430379746836,1.0,0.7515822784810127,0.7309761711791264,0.8787283301353455,0.4015059769153595,0.6951537258989057,1,-0.1452883394451542,0.2188963439107741,0.220856319334466,-0.1474233964760301,0.220856319334466,0,0.3767675161361694,0.3767675161361694,0.7157933149299944,0.4762915205848537,1,1.0,0,922.0,0.0067840283736586,0.0066152955405414,0.0381509326398372,0.0315356366336345,0.0079667661339044,0.003428291529417,0.0284957755357027,0.0237910225987434,6.101581573486328,91.77812957763672,1.3115599155426025,0
S10,window36,36,2,meditation,4,5220.0,5280.0,1.0,0.0,0.0,0,0,0.0231770833333333,0,76,0,1.0,0.8933333333333333,1.0,0.7954166666666667,0.9657147518295368,0.2508163228631019,0.1439418643712997,0.2365815528921313,1,-0.1345629308327279,-0.1929649745804249,0.3302328286430139,-0.1434877272346536,0.3302328286430139,0,0.1637505143880844,0.1637505143880844,0.8306727074433858,0.6083822542850752,1,1.0,0,913.0,0.0065965903922915,0.0064600049518048,0.0375231243669986,0.0310631189495325,0.0075337230227887,0.0036022961139678,0.0277152955532073,0.0231274459511041,6.169139862060547,61.62128829956055,1.3115599155426025,0
S11,window1,1,0,baseline,1,120.0,180.0,1.0,0.0,0.0,0,0,0.0208333333333333,0,74,0,1.0,0.9041095890410958,1.0,0.8065068493150684,0.7471331542392831,0.8530943989753723,0.9820446372032166,0.5247524752475248,1,0.7058451899217333,0.8127616962222571,0.7848548203890467,0.6815325647006456,0.8127616962222571,0,2.1690382957458496,1.0,0.6857837818882232,-0.1287102349840074,1,1.0,0,930.0,0.006055031903088,0.0075254938565194,0.0469394549727439,0.039413958787918,0.0103615382686257,0.002961928024888,0.0227287113666534,0.0191574059426784,5.756221771240234,188.38531494140625,5.390367698669436,0
S11,window2,2,0,baseline,1,180.0,240.0,1.0,0.0,0.0,0,0,0.0244791666666666,0,76,0,1.0,0.9333333333333332,1.0,0.7816666666666666,0.8440315370640608,1.0,0.2766568064689636,0.5273579989577906,1,-0.1804280761012988,-0.413424422995805,0.1458367789649406,-0.4816543528281315,0.1458367789649406,0,0.2928869426250458,0.2928869426250458,0.797254100190047,0.6481209416409695,1,1.0,0,858.0,0.0049959337338805,0.005194382276386,0.0304125919938087,0.0252182092517614,0.0064826882444322,0.0024952758103609,0.0204005576670169,0.017111262306571,5.967034816741943,181.7566375732422,5.390367698669436,0
S11,window3,3,0,baseline,1,240.0,300.0,1.0,0.0,0.0,0,0,0.0244791666666666,0,76,0,1.0,0.84,1.0,0.793125,0.9586699551515642,1.0,0.4820152819156647,0.4762897342365815,1,0.7375052321436981,0.5735388541223155,0.7117318626281199,0.6566578976497321,0.7375052321436981,0,0.6322779059410095,0.6322779059410095,0.7603731959513682,0.3093895828468815,1,1.0,0,890.0,0.0058277565985918,0.0059664044529199,0.0350427292287349,0.0290763229131698,0.0077136596664786,0.0026768152602016,0.0231450796127319,0.019728384912014,5.9789581298828125,45.27189254760742,5.390367698669436,0
S11,window4,4,0,baseline,1,300.0,360.0,1.0,0.0,0.0,0,0,0.0221354166666666,0,84,0,1.0,0.7590361445783133,1.0,0.7163027108433735,0.9707460032546008,1.0,0.8152263760566711,0.5831162063574779,1,0.8105352795728941,0.6952250713446296,0.7868649203489455,0.7707633405530202,0.8105352795728941,0,1.2159199714660645,1.0,0.6948382588077057,-0.0796026558128557,1,1.0,0,951.0,0.0067690094001591,0.0066161532886326,0.0435515418648719,0.0369353890419006,0.0079104639589786,0.0034115882590413,0.0286527629941701,0.0242664404213428,6.205082893371582,34.15573501586914,5.390367698669436,0
S11,window5,5,0,baseline,1,360.0,420.0,1.0,0.0,0.0,0,0,0.0231770833333333,0,75,0,1.0,0.945945945945946,1.0,0.7994087837837838,0.9852834924764968,1.0,0.5211766958236694,0.4971339239187076,1,0.7063961179025932,0.597642757942592,0.4813780499201782,0.4530536057922809,0.7063961179025932,0,0.699077844619751,0.699077844619751,0.8040556416593523,0.2810268122831569,1,1.0,0,915.0,0.0053126416169106,0.0063532791100442,0.0396425612270832,0.0332892835140228,0.0083494717255234,0.0027899844571948,0.0218085702508687,0.0179962571710348,5.902763366699219,136.21583557128906,5.390367698669436,0
S11,window6,6,0,baseline,1,420.0,480.0,1.0,0.0,0.0,0,0,0.0216145833333333,0,80,0,1.0,0.8607594936708861,1.0,0.7420886075949367,0.9816699413642176,1.0,1.042454481124878,0.7243355914538823,1,0.7564480373623079,0.7180084148630678,0.7016587014248817,0.7685550223959149,0.7685550223959149,0,1.4297417402267456,1.0,0.7388047798776197,-0.0463546665576797,1,1.0,0,870.0,0.0053479382768273,0.0061032706871628,0.0435867048799991,0.0374834351241588,0.0081919888034462,0.0023764981888234,0.0199831761419773,0.017042376101017,5.851917743682861,71.7633056640625,5.390367698669436,0
S11,window7,7,0,baseline,1,480.0,540.0,1.0,0.0,0.0,0,0,0.0223958333333333,0,79,0,1.0,0.6538461538461539,1.0,0.7566105769230769,0.6736184985067523,0.9804500341415404,1.372258543968201,0.805106826472121,1,0.8382673875333154,0.8284672512895137,0.8282489346812977,0.8447600511378655,0.8447600511378655,0,2.100287437438965,1.0,0.5636240110904872,-0.1903290206840806,1,1.0,0,913.0,0.006845274940133,0.0064976452849805,0.0404751598834991,0.0339775122702121,0.0081705451011657,0.0028963312506675,0.0278495568782091,0.0238175243139266,6.0758957862854,43.76387405395508,5.390367698669436,0
S11,window8,8,0,baseline,1,540.0,600.0,1.0,0.0,0.0,0,0,0.0221354166666666,0,77,0,1.0,0.881578947368421,1.0,0.7775493421052632,0.97346154458749,1.0,0.8203222155570984,0.6081292339760291,1,0.5756138374068315,0.6354407052617851,0.7341134478731423,0.6137000506786916,0.7341134478731423,0,1.744653582572937,1.0,0.7446700423236153,-0.0421609296426013,1,1.0,0,874.0,0.0052992533892393,0.0063889478333294,0.0434397831559181,0.0370508357882499,0.0087083531543612,0.0025945100933313,0.0201417095959186,0.0165350325405597,5.808078765869141,46.11111831665039,5.390367698669436,0
S11,window9,9,0,baseline,1,600.0,660.0,1.0,0.0,0.0,0,0,0.0236979166666666,0,72,0,1.0,0.943661971830986,1.0,0.8351672535211268,0.9848459461869432,1.0,0.2818614840507507,0.4137571651902032,1,0.6858557929642063,0.6865128832798051,0.7503238718852673,0.0146386645248301,0.7503238718852673,0,0.2316481322050094,0.2316481322050094,0.8497537593679765,0.7476619458910221,1,1.0,0,908.0,0.0048648798838257,0.0053258538246154,0.0315612852573394,0.026235431432724,0.0068118595518171,0.0024539828300476,0.0199094451963901,0.0165430009365081,6.012998104095459,71.66313934326172,5.390367698669436,0
S11,window10,10,0,baseline,1,660.0,720.0,1.0,0.0,0.0,0,0,0.0216145833333333,0,77,0,1.0,0.868421052631579,1.0,0.7833059210526315,0.9623801284166066,1.0,0.8227801322937012,0.5862428348097968,1,0.7800222471511962,0.7761541610950161,0.7551512448203758,0.8296670257930836,0.8296670257930836,0,1.1416115760803225,1.0,0.7360824595776135,-0.0488786521063746,1,1.0,0,884.0,0.0064815762452781,0.006896024569869,0.0417164899408817,0.0348204672336578,0.0087113520130515,0.0031678979285061,0.0240395870059728,0.0206900965422391,6.032614707946777,41.30128860473633,5.390367698669436,0
S11,window11,11,0,baseline,1,720.0,780.0,1.0,0.0,0.0,0,0,0.0216145833333333,0,76,0,1.0,0.76,1.0,0.789375,0.9042914277144982,1.0,1.088497519493103,0.7660239708181344,1,0.7763684143307332,0.7094970504113923,0.7576173522119856,0.5041542013701853,0.7763684143307332,0,1.7765573263168335,1.0,0.6752874283143494,-0.0959271430713755,1,1.0,0,875.0,0.0056026489473879,0.00597740476951,0.040416557341814,0.0344391539692878,0.0077211614698171,0.0025927741080522,0.0210609771311283,0.0176098439842462,5.980515956878662,26.66717529296875,5.390367698669436,0
S11,window13,13,0,baseline,1,840.0,900.0,1.0,0.0,0.0,0,0,0.0216145833333333,0,76,0,0.9866666666666668,0.72,0.9866666666666668,0.78375,0.7297712639880239,0.7637613415718079,1.5624970197677612,0.7665450755601876,1,0.8556331131751794,0.8448599175358146,0.8553908232808521,0.8377094733636754,0.8556331131751794,0,2.000595569610596,1.0,0.6042647125297406,-0.2132835152767087,1,1.0,0,927.0,0.0070558814331889,0.0070295580662786,0.043335422873497,0.0363058671355247,0.0087186638265848,0.0033362619578838,0.0302953924983739,0.0248628687113523,6.112200736999512,32.59199142456055,5.390367698669436,0
S11,window14,14,0,baseline,1,900.0,960.0,1.0,0.0,0.0,0,0,0.021875,0,80,0,1.0,0.7341772151898734,1.0,0.7486155063291139,0.9623070741862771,1.0,1.2916314601898191,0.5612298071912455,1,0.7954398526267447,0.7241964436166621,0.8187556651949147,0.586181988714836,0.8187556651949147,0,1.8608522415161133,1.0,0.6823630083318325,-0.0891700668964685,1,1.0,0,906.0,0.0066368696279823,0.0070206788368523,0.0418845303356647,0.0348638519644737,0.0092108910903334,0.0028825881890952,0.0244019851088523,0.0206682458519935,5.991593837738037,36.98624038696289,5.390367698669436,0
S11,window15,15,0,baseline,1,960.0,1020.0,1.0,0.0,0.0,0,0,0.02421875,0,72,0,1.0,0.9295774647887324,1.0,0.8386883802816901,0.8814753986141814,1.0,0.4925996363162994,0.5179781136008338,1,0.816279958661803,0.612870387830995,0.4916885861240962,0.2581486003068032,0.816279958661803,0,1.1105321645736694,1.0,0.7362736054997473,-0.0507579109098349,1,1.0,0,911.0,0.0048864996060729,0.0054781869985163,0.0354046821594238,0.0299264956265687,0.0072532007470726,0.0023051626048982,0.0197758469730615,0.0165180172771215,5.936076641082764,40.74394989013672,5.390367698669436,0
S11,window16,16,0,baseline,1,1020.0,1080.0,1.0,0.0,0.0,0,0,0.0208333333333333,0,83,0,1.0,0.7560975609756098,1.0,0.7189405487804879,0.938471986512664,1.0,1.4830045700073242,0.6190724335591454,1,0.814936471104357,0.8020840609079293,0.8840328496304133,0.6396968829882301,0.8840328496304133,0,2.1136679649353027,1.0,0.6839806203440432,-0.088552735079151,1,1.0,0,960.0,0.0059684976004064,0.0068866596557199,0.0457292087376117,0.0388425514101982,0.0089837629348039,0.0030541620217263,0.0244631730020046,0.0204847883433103,6.002678871154785,58.19886016845703,5.390367698669436,0
S11,window17,17,0,baseline,1,1080.0,1140.0,1.0,0.0,0.0,0,0,0.0223958333333333,0,72,0,1.0,0.9154929577464788,1.0,0.8378080985915493,0.970834021688799,1.0,0.2329348921775818,0.2605523710265763,1,0.811333817005777,0.6727613812168507,0.8180995116549664,0.8382042732202496,0.8382042732202496,0,0.4866481721401214,0.4866481721401214,0.8087825723912191,0.4807082206060218,1,1.0,0,898.0,0.0054292380809783,0.0060883532278239,0.0396929159760475,0.0336045622825622,0.0077700512483716,0.0029119052924215,0.0223396345973014,0.0185869000852108,6.0155534744262695,26.406391143798828,5.390367698669436,0
S11,window18,18,0,baseline,1,1140.0,1200.0,1.0,0.0,0.0,0,0,0.0234375,0,74,0,1.0,0.821917808219178,1.0,0.8047945205479452,0.9641857211724972,1.0,0.2397593259811401,0.3699843668577384,1,0.4924676323531244,0.5199865995928379,0.4296243633084948,0.4147170815918549,0.5199865995928379,0,0.2867998480796814,0.2867998480796814,0.7893428548314521,0.6508219246791963,1,1.0,0,877.0,0.0061262585222721,0.0065911742858588,0.0383973494172096,0.0318061746656894,0.0082960091531276,0.0030553210526704,0.0229750555008649,0.0190405417233705,6.002885818481445,85.94340515136719,5.390367698669436,0
S11,window19,19,0,baseline,1,1200.0,1260.0,1.0,0.0,0.0,0,0,0.0247395833333333,0,72,0,0.9859154929577464,0.6056338028169014,0.9859154929577464,0.8177816901408451,0.8048111716161341,0.6841138303279877,1.2754006385803225,0.7576862949452841,1,0.8043411538640688,0.805875244509166,0.8254714668819471,0.8567242548328347,0.8567242548328347,0,1.656509280204773,1.0,0.5808799712031502,-0.2488955100773497,1,1.0,0,904.0,0.0069872085005044,0.0065586562268435,0.0403029918670654,0.0337443351745605,0.0081078251823782,0.0032184487208724,0.0309408940374851,0.025311205536127,6.112707614898682,13.673274040222168,5.390367698669436,0
S11,window24,24,1,stress,2,2160.0,2220.0,1.0,0.0,0.0,0,0,0.0221354166666666,0,70,0,0.8985507246376812,0.4202898550724637,0.8985507246376812,0.8605072463768116,0.700437691915583,0.8528079688549042,4.309297561645508,0.9004689942678479,1,0.87464101524904,0.8550833313548352,0.8991341574958449,0.4616791010570274,0.8991341574958449,0,5.506732940673828,1.0,0.4579573945311966,-0.3058914833581028,1,1.0,0,929.0,0.0060565173625946,0.0073584113270044,0.048990648239851,0.0416322387754917,0.0103733548894524,0.0022869324311614,0.0207428988069295,0.017763590440154,5.853580951690674,25.567916870117188,5.390367698669436,0
S11,window25,25,1,stress,2,2220.0,2280.0,1.0,0.0,0.0,0,0,0.021875,0,93,0,0.9891304347826086,0.6195652173913043,0.9891304347826086,0.6496263586956522,0.6053733180727942,0.846575915813446,1.2201917171478271,0.7686294945284002,1,0.6885261635356064,0.8885920711996109,0.221675802232463,0.2516504256137521,0.8885920711996109,0,2.362445116043091,1.0,0.5272641693348817,-0.253317039354527,1,1.0,0,961.0,0.0032106470316648,0.0053457962349057,0.039889920502901,0.0345441251993179,0.008098361082375,0.0014648078940808,0.0100074158981442,0.0081014465540647,5.566117763519287,41.29499053955078,5.390367698669436,0
S11,window27,27,1,stress,2,2340.0,2400.0,1.0,0.0,0.0,0,0,0.0234375,0,87,0,1.0,0.5116279069767442,1.0,0.6931322674418605,0.6948649872536261,0.7937369346618652,1.3210033178329468,0.8514851485148515,1,0.1958769069748608,0.6855294532227304,0.8188423584648519,0.235559180667131,0.8188423584648519,0,1.929944634437561,1.0,0.5131106589667856,-0.2743611474281038,1,1.0,0,954.0,0.0053202845156192,0.0064905863255262,0.041382260620594,0.0348916761577129,0.0088382717221975,0.002597362268716,0.0189424157142639,0.0151322092860937,5.811131477355957,98.5309066772461,5.390367698669436,0
S11,window30,30,1,stress,2,2520.0,2580.0,1.0,0.0,0.0,0,0,0.0255208333333333,0,105,0,1.0,0.6442307692307693,1.0,0.572265625,0.689435945706943,0.849543571472168,0.6578815579414368,0.6868160500260553,1,-0.2077237510880281,0.7214562570785842,0.8681509879965484,-0.0848915861108303,0.8681509879965484,0,0.8691527843475342,0.8691527843475342,0.5776078129696373,-0.0911386742835256,1,1.0,0,989.0,0.009040217846632,0.0079659931361675,0.0438592210412025,0.035893227905035,0.0083979638293385,0.0052254348993301,0.0369692221283912,0.0302844457328319,6.416656970977783,16.341888427734375,5.390367698669436,0
S11,window31,31,2,meditation,4,4740.0,4800.0,1.0,0.0,0.0,0,0,0.0229166666666666,0,84,0,1.0,0.7590361445783133,1.0,0.7174322289156626,0.8594006284618326,0.9974519908428192,0.3100067675113678,0.4747264200104221,1,-0.3262865236862065,0.3047783102426017,0.4770160235357142,-0.5295330748033859,0.4770160235357142,0,0.2437069118022918,0.2437069118022918,0.737063955189646,0.6482170863973651,1,1.0,0,938.0,0.0076710092835128,0.0077709006145596,0.0436097420752048,0.0358388423919677,0.0089625157415866,0.0043464200571179,0.030247438699007,0.0243073515594005,6.238911151885986,23.94506072998047,5.390367698669436,0
S11,window32,32,2,meditation,4,4800.0,4860.0,1.0,0.0,0.0,0,0,0.0223958333333333,0,89,0,1.0,0.7045454545454546,1.0,0.6729403409090909,0.9314770156721331,1.0,0.3064564764499664,0.4971339239187076,1,-0.6070085500050455,0.3669427820641435,0.3955025394209279,-0.6287180806440151,0.3955025394209279,0,0.231036439538002,0.231036439538002,0.7381576425660217,0.6631964507436676,1,1.0,0,995.0,0.0084750456735491,0.0076624066568911,0.0456268936395645,0.0379644893109798,0.0087396455928683,0.0043940972536802,0.0341845713555812,0.0287189930677413,6.331875801086426,15.70678424835205,5.390367698669436,0
S11,window33,33,2,meditation,4,4860.0,4920.0,1.0,0.0,0.0,0,0,0.0252604166666666,0,89,0,1.0,0.8181818181818182,1.0,0.6766690340909091,0.9272525934043986,1.0,0.2853153944015503,0.477853048462741,1,-0.4578632903177604,0.1495614149461076,0.4146080971221958,-0.347163777786073,0.4146080971221958,0,0.21031154692173,0.21031154692173,0.7844173506018738,0.7169561468839151,1,1.0,0,971.0,0.0086835892871022,0.0077628791332244,0.0468033663928508,0.0390404872596263,0.0088101215660572,0.0045206863433122,0.0342651270329952,0.0277124512940645,6.31715202331543,7.83951997756958,5.390367698669436,0
S11,window34,34,2,meditation,4,4920.0,4980.0,1.0,0.0,0.0,0,0,0.0216145833333333,0,91,0,1.0,0.6888888888888889,1.0,0.6607638888888889,0.8763953290400743,0.9582975506782532,0.4267910122871399,0.5497655028660761,1,-0.4454071470595114,0.6962415367091478,0.8105237373012291,-0.4896383744035955,0.8105237373012291,0,0.5057429075241089,0.5057429075241089,0.687899863515167,0.3595969790721396,1,1.0,0,993.0,0.0054815169423818,0.0064849886111915,0.0428315885365009,0.0363465994596481,0.0088963098824024,0.0025092717260122,0.019490735605359,0.0159850735217332,5.867993354797363,185.8353729248047,5.390367698669436,0
S11,window35,35,2,meditation,4,4980.0,5040.0,1.0,0.0,0.0,0,0,0.0231770833333333,0,91,0,1.0,0.7555555555555555,1.0,0.6614583333333334,0.8291773984259944,0.8873798847198486,0.3400416672229767,0.409588327253778,1,-0.5971136874925018,0.3104766846486917,0.2310591417233837,-0.595555726715721,0.3104766846486917,0,0.2715770602226257,0.2715770602226257,0.723817735727758,0.5842289272305017,1,1.0,0,1012.0,0.0087453993037343,0.0083426814526319,0.0481158643960952,0.0397731848061084,0.0095062712207436,0.0049487892538309,0.0371714755892753,0.0303685963153839,6.343781471252441,23.689599990844727,5.390367698669436,0
S13,window2,2,0,baseline,1,180.0,240.0,1.0,0.0,0.0,0,0,0.0216145833333333,0,87,0,1.0,0.7906976744186046,1.0,0.688953488372093,0.921233293766922,1.0,1.2103055715560913,0.6050026055237102,1,0.6255255221367677,0.7394163157595277,0.6536972365274447,0.2691354582302095,0.7394163157595277,0,2.3957841396331787,1.0,0.6926490578975185,-0.0824823742326881,1,1.0,0,962.0,0.0064114397391676,0.0075886081904172,0.0480774939060211,0.0404888875782489,0.0103092398494482,0.0029909389559179,0.0258899759501218,0.0216376930475235,5.934445858001709,51.60920715332031,3.1383852481842056,0
S13,window3,3,0,baseline,1,240.0,300.0,1.0,0.0,0.0,0,0,0.0229166666666666,0,94,0,1.0,0.5913978494623656,1.0,0.6379368279569892,0.6820323920570824,0.9275487661361694,1.5308960676193235,0.7660239708181344,1,0.7104018535979725,0.8106944300412491,0.6821192217432344,0.5588188502937196,0.8106944300412491,0,2.430623769760132,1.0,0.5411688574020711,-0.2201853556129773,1,1.0,0,923.0,0.0082375593483448,0.0081578828394413,0.0477691292762756,0.0396112464368343,0.0101334527134895,0.0040374808013439,0.0297953058034181,0.0243524070829153,6.091403484344482,40.31395721435547,3.1383852481842056,0
S13,window4,4,0,baseline,1,300.0,360.0,1.0,0.0,0.0,0,0,0.0229166666666666,0,86,0,1.0,0.6941176470588235,1.0,0.6941176470588235,0.8086531357415463,0.9036470651626588,0.9342073798179626,0.7076602397081814,1,0.1670637036748779,0.6222576787764719,0.7143936943481192,-0.6775064766938398,0.7143936943481192,0,1.6130579710006714,1.0,0.6202429995459934,-0.1636896556563016,1,1.0,0,949.0,0.0066704396158456,0.0069078360684216,0.043273638933897,0.0363658033311367,0.008619942702353,0.0033291969448328,0.0266101285815238,0.0222761109471321,6.071086406707764,95.16159057617188,3.1383852481842056,0
S13,window5,5,0,baseline,1,360.0,420.0,1.0,0.0,0.0,0,0,0.0231770833333333,0,83,0,1.0,0.7195121951219512,1.0,0.7250381097560976,0.8795549173609252,0.9135472476482392,1.9325356483459477,0.7279833246482543,1,0.8349225937352347,0.8758371649061483,0.8393150604910561,0.7326354344440678,0.8758371649061483,0,3.0800793170928955,1.0,0.651671353257058,-0.1358708002111235,1,1.0,0,938.0,0.0069734016433358,0.0073427855968475,0.0438165515661239,0.0364737659692764,0.0096265049651265,0.0030157105065882,0.0255847088992595,0.0209279172122478,5.999404430389404,44.03781127929688,3.1383852481842056,0
S13,window6,6,0,baseline,1,420.0,480.0,1.0,0.0,0.0,0,0,0.0231770833333333,0,84,0,0.9879518072289156,0.6385542168674698,0.9879518072289156,0.7146084337349398,0.830183227380962,1.0,1.714299559593201,0.8045857217300677,1,0.7849175312713829,0.7437367960181159,0.7344209156046974,0.863239952224373,0.863239952224373,0,2.05354642868042,1.0,0.6020670164070596,-0.1532975666487355,1,1.0,0,884.0,0.0076161096803843,0.0077073657885193,0.0482411533594131,0.0405337885022163,0.0103989765048027,0.0030642757192254,0.024795614182949,0.0199438221752643,5.857428073883057,140.567138671875,3.1383852481842056,0
S13,window8,8,0,baseline,1,540.0,600.0,1.0,0.0,0.0,0,0,0.02265625,0,86,0,1.0,0.8,1.0,0.7009191176470588,0.9385778652270838,1.0,0.3528201282024383,0.4523189161021365,1,0.4740726905242816,-0.0854079861696977,-0.5313029929994291,-0.6501267936400112,0.4740726905242816,0,0.2975758910179138,0.2975758910179138,0.7718157704663338,0.6270685752888572,1,1.0,0,905.0,0.0078814551234245,0.0073749781586229,0.0448500774800777,0.0374750979244709,0.008808366023004,0.003952007740736,0.0311110336333513,0.0260703060775995,6.163584232330322,17.011159896850586,3.1383852481842056,0
S13,window10,10,0,baseline,1,660.0,720.0,1.0,0.0,0.0,0,0,0.0223958333333333,0,81,0,1.0,0.8,1.0,0.7443359375,0.7973651387515783,0.9536497294902802,0.7479059100151062,0.7790515893694633,1,0.8434959741228393,0.7172719902708652,0.7380842529816832,0.4269003860588245,0.8434959741228393,0,1.0321272611618042,1.0,0.6592095416254736,-0.1222462829395354,1,1.0,0,974.0,0.0068225874565541,0.0062873195856809,0.0431782715022563,0.0368909537792205,0.0074018402956426,0.0032895943149924,0.0286343358457088,0.0236785449087619,6.259753227233887,15.260077476501465,3.1383852481842056,0
S13,window11,11,0,baseline,1,720.0,780.0,1.0,0.0,0.0,0,0,0.0229166666666666,0,81,0,1.0,0.6875,1.0,0.7427734375,0.8942592249328365,1.0,0.9567466378211976,0.7097446586763939,1,0.7780742945754481,0.5333174813035779,0.8574824633448492,0.6731219699010067,0.8574824633448492,0,1.4197158813476562,1.0,0.643277767479851,-0.1201851937667908,1,1.0,0,912.0,0.0072247744537889,0.0068346704356372,0.0447935163974761,0.0379588454961776,0.0084484471008181,0.0031829639337956,0.0277420096099376,0.02258494310081,6.099552631378174,40.87562942504883,3.1383852481842056,0
S13,window12,12,0,baseline,1,780.0,840.0,1.0,0.0,0.0,0,0,0.02265625,0,87,0,1.0,0.813953488372093,1.0,0.6898619186046512,0.9392067249980772,1.0,0.9621387720108032,0.491401771756123,1,0.8167448212837469,0.8172302460064623,0.6984669471181025,0.6675363277145678,0.8172302460064623,0,1.609957933425903,1.0,0.7073434128482604,-0.0710122722388528,1,1.0,0,919.0,0.0057095913216471,0.007335371337831,0.0438681282103061,0.0365327559411525,0.0100712925195693,0.0027578040026128,0.0215700399130582,0.0183944590389728,5.797377586364746,121.6679458618164,3.1383852481842056,0
S13,window13,13,0,baseline,1,840.0,900.0,1.0,0.0,0.0,0,0,0.021875,0,86,0,1.0,0.8117647058823529,1.0,0.6891544117647059,0.9776756688573838,1.0,0.5980401039123535,0.5106826472120897,1,0.5009454192137488,0.5865466588653278,0.5181435810522299,0.2293991916973058,0.5865466588653278,0,0.7607166171073914,0.7607166171073914,0.7419369212994171,0.1772317118716604,1,1.0,0,869.0,0.0067801475524902,0.0069022290408611,0.0405994802713394,0.0336972512304782,0.0086198151111602,0.003212597221136,0.0279089398682117,0.0230184160172939,6.041184425354004,19.980127334594727,3.1383852481842056,0
S13,window14,14,0,baseline,1,900.0,960.0,1.0,0.0,0.0,0,0,0.0223958333333333,0,86,0,1.0,0.8823529411764706,1.0,0.6950367647058824,0.988009420549966,1.0,0.7492824792861938,0.4392912975508077,1,0.7908755530831324,0.7257545840272152,0.6526654623099194,0.67388384163318,0.7908755530831324,0,1.0150951147079468,1.0,0.7493440026355781,-0.0382917625095673,1,1.0,0,867.0,0.0063780350610613,0.0073779691010713,0.0464772693812847,0.0390993021428585,0.0103774135932326,0.0026009362190961,0.0209072809666395,0.0171058289706707,5.700448989868164,110.86287689208984,3.1383852481842056,0
S13,window15,15,0,baseline,1,960.0,1020.0,1.0,0.0,0.0,0,0,0.0213541666666666,0,79,0,1.0,0.7051282051282052,1.0,0.7598157051282052,0.8680566044096103,0.9954936802387238,1.1609926223754885,0.6717040125065138,1,0.8403519249601452,0.6992752841748106,0.7149960043322798,0.7247828045668995,0.8403519249601452,0,1.4323461055755615,1.0,0.6424682633741653,-0.122573967299455,1,1.0,0,899.0,0.0045458320528268,0.0067491070367395,0.0440777577459812,0.0373286493122577,0.0097416676580905,0.0022614244371652,0.0180406272411346,0.0149766970425844,5.644036293029785,98.17914581298828,3.1383852481842056,0
S13,window16,16,0,baseline,1,1020.0,1080.0,1.0,0.0,0.0,0,0,0.021875,0,87,0,1.0,0.8604651162790697,1.0,0.6933139534883721,0.9841797669550364,1.0,0.3961705267429352,0.3423658155289213,1,0.5082184925982508,0.5319589483360102,0.3514650659653669,0.7544242271137758,0.7544242271137758,0,0.8906476497650146,0.8906476497650146,0.7503752116216373,0.0635368268574654,1,1.0,0,902.0,0.0062643093988299,0.0065021594054996,0.0434330180287361,0.0369308590888977,0.0085206013172864,0.002726153936237,0.0252358540892601,0.020973153412342,5.943120956420898,56.96367263793945,3.1383852481842056,0
S13,window17,17,0,baseline,1,1080.0,1140.0,1.0,0.0,0.0,0,0,0.0221354166666666,0,86,0,1.0,0.8470588235294118,1.0,0.6919117647058823,0.9208270098854292,1.0,1.81169068813324,0.7285044293903075,1,0.7572071912152257,0.857153988512049,0.7651966512037024,0.2488470225650791,0.857153988512049,0,2.9493303298950195,1.0,0.7150716323773935,-0.0656756004698191,1,1.0,0,933.0,0.0064679086208343,0.0071085654199123,0.0442793853580951,0.0371708199381828,0.0092056281864643,0.0030002146959304,0.0249020401388406,0.0204523354768753,6.031666278839111,24.95354652404785,3.1383852481842056,0
S13,window19,19,0,baseline,1,1200.0,1260.0,1.0,0.0,0.0,0,0,0.0239583333333333,0,86,0,1.0,0.7294117647058823,1.0,0.6943014705882353,0.8469308333492556,1.0,1.1697646379470823,0.7701928087545596,1,0.7529886942328299,0.6921855800353374,0.6691194805060832,0.2867793221744297,0.7529886942328299,0,1.8262498378753664,1.0,0.6458439558871295,-0.1194437622509214,1,1.0,0,929.0,0.0065942490473389,0.0071140034124255,0.0419727191329002,0.0348587147891521,0.0090755391865968,0.0031065586954355,0.0256870239973068,0.0213667470961809,6.036036968231201,56.16682815551758,3.1383852481842056,0
S13,window24,24,1,stress,2,3540.0,3600.0,1.0,0.0,0.0,0,0,0.0223958333333333,0,84,0,0.9879518072289156,0.6746987951807228,0.9879518072289156,0.7100903614457831,0.8707904667662971,0.9623810946941376,1.6686182022094729,0.7535174570088587,1,0.7335301332843629,0.8657188988234554,0.73134169606868,0.5972505784380754,0.8657188988234554,0,2.965769052505493,1.0,0.6287070195479614,-0.1417071096348914,1,1.0,0,909.0,0.0061902459710836,0.0070989788509905,0.0439120270311832,0.0368130467832088,0.0094929663464427,0.0028546079993247,0.0224279277026653,0.0179038178175687,5.944483280181885,24.54813575744629,3.1383852481842056,0
S13,window25,25,1,stress,2,3600.0,3660.0,1.0,0.0,0.0,0,0,0.021875,0,97,0,1.0,0.7291666666666666,1.0,0.61767578125,0.750122535724804,0.8426341116428375,1.8983114957809448,0.863470557582074,1,0.3946621515191186,0.857775922641262,0.7580566217122287,-0.6223094524052164,0.857775922641262,0,2.371351718902588,1.0,0.616703427384108,-0.1830608381580896,1,1.0,0,954.0,0.0071949763223528,0.0074873119592666,0.0459368042647838,0.0384494923055172,0.0092934891581535,0.0036399150267243,0.0255323406308889,0.0204544216394424,6.115857124328613,24.97861099243164,3.1383852481842056,0
S13,window26,26,1,stress,2,3660.0,3720.0,1.0,0.0,0.0,0,0,0.0223958333333333,0,97,0,1.0,0.78125,1.0,0.6080729166666666,0.8406265878658676,0.9614422917366028,2.6064398288726807,0.8754559666492965,1,0.6307298677768727,0.8258311831134422,0.722443805244631,0.4511896720721146,0.8258311831134422,0,4.275217056274414,1.0,0.6646879763597603,-0.1151077800993823,1,1.0,0,943.0,0.0077601517550647,0.0077205183915793,0.0472930073738098,0.0395724885165691,0.0098940636962652,0.0035055819898843,0.0272896662354469,0.0212732534855604,6.0262603759765625,108.65309143066406,3.1383852481842056,0
S13,window27,27,1,stress,2,3720.0,3780.0,1.0,0.0,0.0,0,0,0.0213541666666666,0,87,0,0.9883720930232558,0.627906976744186,0.9883720930232558,0.6800508720930233,0.8041914653044862,0.8888676762580872,1.3080936670303345,0.7649817613340282,1,0.1818852109991218,0.5721567688571761,0.734521117822333,-0.7536873468858953,0.734521117822333,0,2.04829740524292,1.0,0.5900946488936715,-0.1906887029814497,1,1.0,0,1003.0,0.0067612333223223,0.0069318800233304,0.0441905558109283,0.0372586771845817,0.0086427731439471,0.0035386197268962,0.0252836849540472,0.0206347219645977,6.108022689819336,298.3692321777344,3.1383852481842056,0
S13,window29,29,1,stress,2,3840.0,3900.0,1.0,0.0,0.0,0,0,0.0208333333333333,0,88,0,1.0,0.7701149425287356,1.0,0.6752873563218391,0.8726536577367221,0.9799034297466278,2.1851606369018555,0.8160500260552371,1,0.3790005281696803,0.73207084131828,0.5402935469450451,0.5402450218846334,0.73207084131828,0,4.509131908416748,1.0,0.669842074332511,-0.1058262453705418,1,1.0,0,939.0,0.0066449958831071,0.0071296039968729,0.0439785569906234,0.0368489548563957,0.0090538887307047,0.0034671574831008,0.0262675676494836,0.0215105935931205,6.025038242340088,59.49264526367188,3.1383852481842056,0
S13,window30,30,2,meditation,4,4980.0,5040.0,1.0,0.0,0.0,0,0,0.025,0,74,0,1.0,0.9726027397260274,1.0,0.8139982876712328,0.987965408165671,1.0,0.2705227434635162,0.5362167795726941,1,-0.2004997089101923,0.0125146103045604,0.4191235071209461,-0.3201148621494865,0.4191235071209461,0,0.4235251545906067,0.4235251545906067,0.8430782028810515,0.5652470193686192,1,1.0,0,824.0,0.0050514074973762,0.0056650540791451,0.0345409214496612,0.0288758687674999,0.0070528779178857,0.0026947939768433,0.0214705988764762,0.0174926370382308,5.944657802581787,226.8353576660156,3.1383852481842056,0
S13,window31,31,2,meditation,4,5040.0,5100.0,1.0,0.0,0.0,0,0,0.0296875,0,72,0,1.0,0.9295774647887324,1.0,0.8338468309859155,0.9853711272921908,1.0,0.2130276709794998,0.3600833767587285,1,-0.0852458935955953,0.0107533503939524,0.3531865869957148,-0.0803746398717296,0.3531865869957148,0,0.1764565408229828,0.1764565408229828,0.8497966700208519,0.7987594804366847,1,1.0,0,865.0,0.0048215361312031,0.0046956138685345,0.0329005345702171,0.0282049197703599,0.0055792713537812,0.0024662353098392,0.0204223599284887,0.0169941540807485,6.028931617736816,420.1571960449219,3.1383852481842056,0
S13,window32,32,2,meditation,4,5100.0,5160.0,1.0,0.0,0.0,0,0,0.0278645833333333,0,72,0,1.0,0.943661971830986,1.0,0.8336267605633803,0.9883623000227656,1.0,0.3081103563308716,0.4325169359041167,1,-0.4716597381220438,0.2551382019955016,0.4506489792388525,-0.431558548287724,0.4506489792388525,0,0.2060834914445877,0.2060834914445877,0.8533651295947654,0.7741056751103994,1,1.0,0,772.0,0.0052354307845234,0.0057185129262506,0.0317405648529529,0.0260220523923635,0.0071258880198001,0.0028524436056613,0.0218429192900657,0.0172900110483169,5.830278873443604,241.90203857421875,3.1383852481842056,0
S13,window33,33,2,meditation,4,5160.0,5220.0,1.0,0.0,0.0,0,0,0.0239583333333333,0,74,0,1.0,0.958904109589041,1.0,0.818279109589041,0.9902194774427512,1.0,0.2902081310749054,0.3725898905680042,1,-0.0561250055431116,0.2456393905765595,-0.0872377614541771,-0.1900915892568454,0.2456393905765595,0,0.209663838148117,0.209663838148117,0.8596611032536299,0.775562264089283,1,1.0,0,837.0,0.0051093660295009,0.0051685716025531,0.0325751826167106,0.0274066124111413,0.0060987742617726,0.0028473380953073,0.0221875961869955,0.018016081303358,6.018760681152344,388.8363037109375,3.1383852481842056,0
S13,window34,34,2,meditation,4,5220.0,5280.0,1.0,0.0,0.0,0,0,0.0208333333333333,0,80,0,1.0,0.8987341772151899,1.0,0.7553401898734177,0.9850983262571746,1.0,0.3147968053817749,0.2860865033871808,1,-0.0008661493534028,0.7369396551035,0.7614805918965271,-0.558115995139884,0.7614805918965271,0,0.4811112582683563,0.4811112582683563,0.8069120429363927,0.4847835764604942,1,1.0,0,883.0,0.0042677917517721,0.0080000692978501,0.0491657964885234,0.0411657281219959,0.0122131509706377,0.0023872051388025,0.0176230743527412,0.0145187582820653,5.2292351722717285,120.83103942871094,3.1383852481842056,0
S13,window35,35,2,meditation,4,5280.0,5340.0,1.0,0.0,0.0,0,0,0.0216145833333333,0,78,0,1.0,0.8831168831168831,1.0,0.768262987012987,0.9801614605129952,1.0,0.4563604593276977,0.457529963522668,1,0.4291549724564216,0.6016546195584761,0.7594621664855504,-0.3364875135456787,0.7594621664855504,0,0.5323867201805115,0.5323867201805115,0.7940565193826008,0.4275887098828022,1,1.0,0,875.0,0.0047614369541406,0.0064882165752351,0.0426460392773151,0.0361578203737735,0.0091717224568128,0.0021033473312854,0.0157282892614603,0.0128234773874282,5.720648288726807,39.36055374145508,3.1383852481842056,0
S14,window1,1,0,baseline,1,60.0,120.0,1.0,0.0,0.0,0,0,0.02265625,0,69,0,1.0,0.9852941176470588,1.0,0.8708639705882353,0.8450287823682675,1.0,0.6637448072433472,0.7222511724856696,1,0.6668864643934248,0.4253541965278583,0.6270012132761338,0.8235874580262434,0.8235874580262434,0,1.1835660934448242,1.0,0.7476262817693039,-0.0431545691138155,1,1.0,0,825.0,0.0047135129570961,0.0052563184872269,0.0329210646450519,0.0276647452265024,0.0067612905986607,0.0023308955132961,0.0215515103191137,0.0179910231381654,5.868523120880127,136.65863037109375,4.21163730621338,0
S14,window2,2,0,baseline,1,120.0,180.0,1.0,0.0,0.0,0,0,0.0229166666666666,0,73,0,1.0,0.8055555555555556,1.0,0.8207465277777778,0.8656447153335467,0.6184611618518829,1.1902507543563845,0.7759249609171444,1,0.7006816401188748,0.8165908084964345,0.8103801444911305,0.6672647127540369,0.8165908084964345,0,1.8173668384552,1.0,0.6819156368222862,-0.1873068640369759,1,1.0,0,914.0,0.0064953588880598,0.0069961277768015,0.041205957531929,0.0342098288238048,0.0090655172243714,0.0031954701989889,0.0242250189185142,0.0201398879289627,5.974378108978272,48.2851676940918,4.21163730621338,0
S14,window3,3,0,baseline,1,180.0,240.0,1.0,0.0,0.0,0,0,0.0223958333333333,0,75,0,1.0,0.8108108108108109,1.0,0.8000422297297297,0.8175971540985352,0.644232988357544,1.0019984245300293,0.7399687337154768,1,0.7935039805894603,0.5766375256446092,0.8414208923247019,0.843319472826828,0.843319472826828,0,1.472953200340271,1.0,0.6696034705538848,-0.1912992211427369,1,1.0,0,872.0,0.006045680027455,0.0073645967058837,0.0465151257812976,0.0391505286097526,0.0098809394985437,0.003062292933464,0.0253307446837425,0.020523440092802,5.818684577941895,144.5732421875,4.21163730621338,0
S14,window4,4,0,baseline,1,240.0,300.0,1.0,0.0,0.0,0,0,0.0283854166666666,0,72,0,1.0,1.0,1.0,0.8329665492957746,0.9903357405686346,0.2950053662061691,0.3445743322372436,0.6331422615945805,1,0.5230340060735917,-0.0868237243653925,0.2877087513476089,-0.4439054368876059,0.5230340060735917,0,0.3746998310089111,0.3746998310089111,0.8596307390696993,0.4466354456847898,1,1.0,0,796.0,0.003716197097674,0.0043466808274388,0.0260160155594348,0.0216693356633186,0.005794805008918,0.0017954562790691,0.018263230100274,0.0155902281403541,5.725982189178467,213.6537170410156,4.21163730621338,0
S14,window5,5,0,baseline,1,300.0,360.0,1.0,0.0,0.0,0,0,0.0213541666666666,0,72,0,1.0,0.943661971830986,1.0,0.8400088028169014,0.9860645735955318,0.2819978892803192,0.7242037653923035,0.6331422615945805,1,0.809013259770921,0.452333616365353,0.8882620132184429,0.6244913121999097,0.8882620132184429,0,1.349288821220398,1.0,0.773284160811054,-0.1998857927317414,1,1.0,0,826.0,0.0048733009025454,0.0061825984157621,0.0378930307924747,0.0317104309797287,0.0082611925899982,0.0025537707842886,0.0223327986896038,0.0184069834649562,5.79386043548584,47.47489929199219,4.21163730621338,0
S14,window6,6,0,baseline,1,360.0,420.0,1.0,0.0,0.0,0,0,0.021875,0,76,0,1.0,0.9733333333333334,1.0,0.7908333333333334,0.9307483914425664,0.3723558187484741,0.4954905807971954,0.7092235539343408,1,0.4118696400466518,0.1638831241790109,0.6371357865371282,0.2068171583167853,0.6371357865371282,0,0.7782918214797974,0.7782918214797974,0.7907286686181234,0.0394842310679626,1,1.0,0,866.0,0.0061114160344004,0.0060310498811304,0.0355277508497238,0.0294966995716094,0.0075276410207152,0.002651285380125,0.0240006931126117,0.0194506123661994,6.020721435546875,43.77203750610352,4.21163730621338,0
S14,window7,7,0,baseline,1,420.0,480.0,1.0,0.0,0.0,0,0,0.03515625,0,72,0,1.0,1.0,1.0,0.8338468309859155,0.9763060199820548,0.387505829334259,0.5622036457061768,0.7566440854611777,1,0.1977045371606431,-0.1589414010360278,0.0490833494231381,-0.2262770424021748,0.1977045371606431,0,0.7557128667831421,0.7557128667831421,0.8173205193163022,0.0852400955459362,1,1.0,0,730.0,0.0030513785313814,0.0033916635438799,0.0239791106432676,0.020587446168065,0.0044981082901358,0.0014250711537897,0.0141891753301024,0.0117835849523544,5.5403547286987305,512.4789428710938,4.21163730621338,0
S14,window8,8,0,baseline,1,480.0,540.0,1.0,0.0,0.0,0,0,0.021875,0,75,0,1.0,0.8648648648648649,1.0,0.8019425675675675,0.786379882390513,0.6343090832233429,0.7323567867279053,0.5414278269932257,1,0.4070204931895012,0.3486586751490201,0.5547993225478229,0.0121365380046533,0.5547993225478229,0,1.1377912759780884,1.0,0.6818599106630999,-0.1853682991370765,1,1.0,0,902.0,0.0057328641414642,0.0067056976258754,0.0428071990609169,0.0361015014350414,0.0089076673611998,0.0028867088258266,0.0233000218868255,0.0202101189643144,5.747507572174072,349.607421875,4.21163730621338,0
S14,window9,9,0,baseline,1,540.0,600.0,1.0,0.0,0.0,0,0,0.0221354166666666,0,75,0,1.0,0.8918918918918919,1.0,0.7977195945945946,0.9562182745079156,0.4607415199279785,0.9897936582565308,0.6373110995310057,1,0.7587238111452732,0.5310986484578493,0.7604618226675308,0.8661869264496512,0.8661869264496512,0,1.6403180360794067,1.0,0.7436222391091315,-0.1781924838234589,1,1.0,0,862.0,0.0058211111463606,0.0065035396255552,0.0432477556169033,0.0367442183196544,0.008567470125854,0.002595302183181,0.0226137787103652,0.0187296532094478,5.910285949707031,59.56182098388672,4.21163730621338,0
S14,window10,10,0,baseline,1,600.0,660.0,1.0,0.0,0.0,0,0,0.02109375,0,75,0,1.0,0.9054054054054054,1.0,0.8036317567567568,0.9078165730765456,0.5897850394248962,0.8109385967254639,0.6732673267326733,1,0.7163442335072144,0.573129707133024,0.6276661773209409,0.4520754775159046,0.7163442335072144,0,1.4252487421035769,1.0,0.7345071340851258,-0.1539779752530179,1,1.0,0,885.0,0.0056202113628387,0.0068723638541996,0.0406200587749481,0.0337476916611194,0.0092709762975573,0.0028877574950456,0.023882083594799,0.0204440988600254,5.796827793121338,140.5281524658203,4.21163730621338,0
S14,window11,11,0,baseline,1,660.0,720.0,1.0,0.0,0.0,0,0,0.0255208333333333,0,69,0,1.0,0.9705882352941176,1.0,0.8669577205882353,0.9750987704837796,0.3653089106082916,0.5840706825256348,0.6659718603439291,1,0.7580268218065594,0.3685645892546598,0.6143172067374113,0.8312643562823661,0.8312643562823661,0,0.964317798614502,0.964317798614502,0.7843331454013307,-0.1380394077532489,1,1.0,0,824.0,0.0043895868584513,0.0052153537981212,0.0312879718840122,0.0260726176202297,0.0066959136165678,0.0023676194250583,0.020837053656578,0.0173403024673461,5.872717380523682,84.90544891357422,4.21163730621338,0
S14,window12,12,0,baseline,1,720.0,780.0,1.0,0.0,0.0,0,0,0.0208333333333333,0,72,0,0.9859154929577464,0.9014084507042254,0.9859154929577464,0.8400088028169014,0.7989295548817714,0.8249749839305878,0.9986380338668824,0.7576862949452841,1,0.6630808625171445,0.4770354900165842,0.7667801213923127,0.5113083547245727,0.7667801213923127,0,1.5473610162734983,1.0,0.6974253453377709,-0.1264182314940933,1,1.0,0,841.0,0.0042530340142548,0.0049905688501894,0.0356048047542572,0.0306142382323741,0.0064954557456076,0.002071127295494,0.019417742267251,0.0165867954492568,5.911847114562988,59.80565643310547,4.21163730621338,0
S14,window13,13,0,baseline,1,780.0,840.0,1.0,0.0,0.0,0,0,0.0223958333333333,0,76,0,1.0,0.8133333333333334,1.0,0.7858333333333334,0.7664933839069644,0.8972893953323364,1.0475560426712036,0.6977592496091715,1,0.792364600571098,0.7317711587783308,0.7597285770035755,0.7495773630997999,0.792364600571098,0,1.7878133058547974,1.0,0.6552813485054226,-0.1400543051901748,1,1.0,0,916.0,0.00625457521528,0.0064081866294145,0.0407483391463756,0.0343401506543159,0.0078760338947176,0.0033013010397553,0.0291645247489213,0.0248959921300411,6.114264488220215,23.20317649841309,4.21163730621338,0
S14,window14,14,0,baseline,1,840.0,900.0,1.0,0.0,0.0,0,0,0.02109375,0,74,0,1.0,0.8493150684931506,1.0,0.8105736301369864,0.9114608530722852,0.5345057249069214,0.7692546248435974,0.6414799374674309,1,0.8540977274257389,0.5037969559705828,0.7515007217302375,0.6358558727203489,0.8540977274257389,0,1.2358137369155884,1.0,0.7131642833189459,-0.1837138349572531,1,1.0,0,932.0,0.0068976357579231,0.0069150174967944,0.0417979098856449,0.0348828919231891,0.0086066089570522,0.0032681736629456,0.0289414525032043,0.0241151563823223,6.094742774963379,73.80779266357422,4.21163730621338,0
S14,window15,15,0,baseline,1,900.0,960.0,1.0,0.0,0.0,0,0,0.02109375,0,79,0,1.0,0.8589743589743589,1.0,0.7560096153846154,0.7897859494020057,0.8711601793766022,1.158513069152832,0.8191766545075561,1,0.8333534865785053,0.7359623203350869,0.7901880432816927,0.4591815458833098,0.8333534865785053,0,1.7134432792663574,1.0,0.6805255284103454,-0.1270711601130403,1,1.0,0,890.0,0.0043461774475872,0.0052022202871739,0.0369914583861827,0.0317892394959926,0.0067826937884092,0.0022981222718954,0.0183950848877429,0.015186090953648,5.819568634033203,382.0867004394531,4.21163730621338,0
S14,window16,16,0,baseline,1,960.0,1020.0,1.0,0.0,0.0,0,0,0.021875,0,79,0,1.0,0.8717948717948718,1.0,0.7612179487179487,0.7395424919512161,1.0,1.2290796041488647,0.7623762376237624,1,0.7678219336538314,0.4968883657876377,0.7527174991386394,0.4541657868654223,0.7678219336538314,0,1.8995342254638672,1.0,0.6705806963033135,-0.1035759154737343,1,1.0,0,857.0,0.0063301194459199,0.0067356610670685,0.0425733998417854,0.0358377397060394,0.008543194271624,0.0030813179910182,0.0241174809634685,0.0196947213262319,5.982043743133545,37.36257553100586,4.21163730621338,0
S14,window17,17,0,baseline,1,1020.0,1080.0,1.0,0.0,0.0,0,0,0.0346354166666666,0,73,0,1.0,0.9861111111111112,1.0,0.8248697916666666,0.9890726656680168,0.2636276632547378,0.4964233338832855,0.6711829077644607,1,-0.2090733591981988,-0.2303119056907576,0.0144074820753394,-0.061358577312818,0.0144074820753394,0,0.8384047150611877,0.8384047150611877,0.8073257726387306,-0.0293962994971657,1,1.0,0,799.0,0.0040800129063427,0.0043933228589594,0.028021702542901,0.0236283782869577,0.0058126063086092,0.001783987507224,0.0173400193452835,0.0141301909461617,5.722029685974121,274.4989013671875,4.21163730621338,0
S14,window18,18,0,baseline,1,1080.0,1140.0,1.0,0.0,0.0,0,0,0.02109375,0,74,0,1.0,0.9863013698630136,1.0,0.8086472602739726,0.9485809079962106,0.3607871532440185,0.735474705696106,0.7326732673267327,1,0.5547585764557613,0.2076122144729334,0.7761225722640964,0.4851756220307515,0.7761225722640964,0,1.4479132890701294,1.0,0.7790948203440687,-0.1767675737310385,1,1.0,0,860.0,0.004573053214699,0.0055642840452492,0.0354854278266429,0.0299211461097002,0.0074834572151303,0.0022941706702113,0.0179136618971824,0.0154259987175464,5.797120571136475,121.13593292236328,4.21163730621338,0
S14,window19,19,0,baseline,1,1140.0,1200.0,1.0,0.0,0.0,0,0,0.02265625,0,75,0,1.0,0.8783783783783784,1.0,0.8034206081081081,0.8916334530998514,0.5875586271286011,0.909330666065216,0.7816571130797291,1,0.736307983050333,0.4254356802438782,0.7207577320565304,0.4600467274114327,0.736307983050333,0,1.3828154802322388,1.0,0.7188413872813068,-0.1666884664293733,1,1.0,0,845.0,0.0061510354280471,0.0065451664850115,0.0404426231980323,0.0338974557816982,0.0084191178902983,0.002851715311408,0.0238731112331151,0.0196599103510379,5.923831939697266,90.74144744873048,4.21163730621338,0
S14,window25,25,1,stress,2,2220.0,2280.0,1.0,0.0,0.0,0,0,0.0229166666666666,0,110,0,0.9908256880733946,0.8256880733944955,0.9908256880733946,0.5478784403669725,0.7588757071766474,0.9577713012695312,3.028794288635254,0.918186555497655,1,0.8104589306470819,0.7162806189257628,0.7447950688845021,0.72053091831329,0.8104589306470819,0,3.849023103713989,1.0,0.6561030791254713,-0.1249666882554277,1,1.0,0,938.0,0.0070018861442804,0.0073944944888353,0.0441130958497524,0.0367186032235622,0.009743632748723,0.0029934495687484,0.0247371383011341,0.0201476700603961,6.000189781188965,28.31884384155273,4.21163730621338,0
S14,window26,26,1,stress,2,2280.0,2340.0,1.0,0.0,0.0,0,0,0.0208333333333333,0,121,0,1.0,0.875,1.0,0.4958333333333333,0.8947585027000617,1.0,1.415137767791748,0.924960917144346,1,0.7766208999653597,0.4998624574259258,0.6018984188722948,0.4597826238489418,0.7766208999653597,0,1.7041726112365725,1.0,0.7184275508100185,-0.0638103743249844,1,1.0,0,948.0,0.0069492347538471,0.0068141180090606,0.0424907058477401,0.0356765873730182,0.0081454012542963,0.0035588778555393,0.028548115864396,0.023503515869379,6.180489540100098,44.4974250793457,4.21163730621338,0
S14,window27,27,1,stress,2,2340.0,2400.0,1.0,0.0,0.0,0,0,0.0236979166666666,0,123,0,1.0,0.9836065573770492,1.0,0.4887295081967213,0.9660763048373658,0.992804765701294,0.730847954750061,0.8509640437727983,1,0.3774670723932367,0.4478511439919653,0.3934197700525471,-0.0463821623039227,0.4478511439919653,0,1.0052404403686523,1.0,0.7832655144020294,-0.0151977651522203,1,1.0,0,920.0,0.0073146042414009,0.0076822061091661,0.0454216636717319,0.0377394556999206,0.0096182208508253,0.0038057919591665,0.0300435665994882,0.0252904929220676,6.060633182525635,46.58419799804688,4.21163730621338,0
S14,window28,28,1,stress,2,2400.0,2460.0,1.0,0.0,0.0,0,0,0.0213541666666666,0,119,0,1.0,0.9745762711864406,1.0,0.504634533898305,0.9686598473067096,0.9939655959606172,0.9246116876602172,0.8822303282959875,1,0.6342070884868055,0.2778086562306687,0.7393944805640148,0.6107778689749859,0.7393944805640148,0,1.2865300178527832,1.0,0.780428462666589,-0.0169707578272362,1,1.0,0,919.0,0.0068881446495652,0.0074807191267609,0.0456643961369991,0.0381836779415607,0.0094167767092585,0.0034005846828222,0.0312539190053939,0.0267489552497863,6.053724765777588,62.17280960083008,4.21163730621338,0
S14,window29,29,1,stress,2,2460.0,2520.0,1.0,0.0,0.0,0,0,0.0213541666666666,0,111,0,1.0,0.9818181818181818,1.0,0.5367897727272727,0.9695189414652584,0.976545512676239,0.791006326675415,0.8832725377800938,1,0.4739037611184313,0.3863302558774811,0.4020951571731606,0.402295226206507,0.4739037611184313,0,0.9665165543556212,0.9665165543556212,0.7869312997312883,0.0145450137252076,1,1.0,0,912.0,0.0060413675382733,0.0067153205163776,0.0426080226898193,0.0358927026391029,0.0083922715857625,0.0032837623730301,0.0293214749544858,0.0252024941146373,6.07079029083252,41.01641082763672,4.21163730621338,0
S14,window30,30,2,meditation,4,4980.0,5040.0,1.0,0.0,0.0,0,0,0.0229166666666666,0,78,0,1.0,0.935064935064935,1.0,0.773336038961039,0.9698994668957556,0.4385156035423279,0.2219499051570892,0.3986451276706618,1,0.0490042365304894,0.3217417994856533,0.0843186016013425,-0.1723975272049866,0.3217417994856533,0,0.2298722118139267,0.2298722118139267,0.8420085929133081,0.6027510363150748,1,1.0,0,898.0,0.0061440132558345,0.0066855577751994,0.0384802296757698,0.0317946709692478,0.0086125284433364,0.0030720187351107,0.0241936258971691,0.0200575664639472,6.003493309020996,25.83980941772461,4.21163730621338,0
S14,window31,31,2,meditation,4,5040.0,5100.0,1.0,0.0,0.0,0,0,0.0229166666666666,0,78,0,1.0,0.987012987012987,1.0,0.768060064935065,0.981741274919261,0.3671655356884002,0.0708025842905044,0.2933819697759249,1,0.0713143806749369,-0.0984990621636719,0.3360723223962316,0.3615337125851721,0.3615337125851721,0,0.0818556323647499,0.0818556323647499,0.881142014044498,0.7514749663910616,1,1.0,0,885.0,0.0052042230963706,0.0059039168991148,0.0357359983026981,0.0298320818692445,0.0073201828636229,0.0030096489936113,0.0226858053356409,0.0186947640031576,6.000158786773682,155.55551147460938,4.21163730621338,0
S14,window32,32,2,meditation,4,5100.0,5160.0,1.0,0.0,0.0,0,0,0.02421875,0,77,0,1.0,0.9736842105263158,1.0,0.7791940789473685,0.9872535938634708,0.3580921590328216,0.216112419962883,0.5388223032829599,1,-0.505505055146965,-0.1807278277434886,-0.0802773357730339,-0.1775059795571473,-0.0802773357730339,0,0.2347220331430435,0.2347220331430435,0.8621775590552633,0.5937196682389243,1,1.0,0,901.0,0.0048985527828335,0.0052965846844017,0.0317133888602256,0.0264168046414852,0.0066323052160441,0.0026228195056319,0.0211340487003326,0.0172729659825563,5.995198726654053,159.7929229736328,4.21163730621338,0
S14,window33,33,2,meditation,4,5160.0,5220.0,1.0,0.0,0.0,0,0,0.0307291666666666,0,77,0,1.0,0.986842105263158,1.0,0.7831003289473685,0.989766662928104,0.3142226338386535,0.2196472585201263,0.4830640958832725,1,,-0.2497801460767625,-0.0917129192758918,-0.0904490055873693,-0.0904490055873693,0,0.1207550317049026,0.1207550317049026,0.8795913378132041,0.701294924065734,1,1.0,0,829.0,0.0053460281342267,0.0053755100816488,0.0315269380807876,0.0261514298617839,0.0067409784533083,0.0026329299435019,0.0206263251602649,0.0173115357756614,5.908552646636963,238.8608245849609,4.21163730621338,0
S14,window34,34,2,meditation,4,5220.0,5280.0,1.0,0.0,0.0,0,0,0.0283854166666666,0,79,0,1.0,0.9743589743589745,1.0,0.7624198717948718,0.9614911386156616,0.4389260411262512,0.131746307015419,0.3428869202709744,1,0.1157120075002254,0.0021269042919592,-0.024067790574277,-0.0531466874855259,0.1157120075002254,0,0.1057569235563278,0.1057569235563278,0.8676152389726552,0.7366550636868425,1,1.0,0,852.0,0.0051297913305461,0.0054079764522612,0.0329266376793384,0.0275186598300933,0.0066455653868615,0.0026419339701533,0.0214099586009979,0.0176242589950561,5.9683051109313965,255.7294158935547,4.21163730621338,0
S14,window35,35,2,meditation,4,5280.0,5340.0,1.0,0.0,0.0,0,0,0.0223958333333333,0,77,0,1.0,0.9342105263157896,1.0,0.7843338815789473,0.9848613504180492,0.3541467189788818,0.1095199733972549,0.2954663887441375,1,0.5140246893565849,0.0692976836072697,0.4567865033549519,0.3338783954481997,0.5140246893565849,0,0.1231907606124877,0.1231907606124877,0.8568235395904817,0.6918244146314818,1,1.0,0,859.0,0.0053606494329869,0.006011608056724,0.035399105399847,0.0293874964118003,0.0075679738074541,0.0030255895107984,0.0222693923860788,0.0187775064259767,5.957366466522217,51.2391471862793,4.21163730621338,0
S15,window1,1,0,baseline,1,120.0,180.0,1.0,0.0,0.0,0,0,0.0216145833333333,0,78,0,0.948051948051948,0.5844155844155844,0.948051948051948,0.7727272727272727,0.6443609766739722,0.9999999403953552,1.4727795124053955,0.6909848879624805,1,0.8567544041907745,0.7527867966661718,0.7848220815732436,0.8936962611330912,0.8936962611330912,0,2.0041983127593994,1.0,0.5166849163788151,-0.2239747057976031,1,1.0,0,934.0,0.0048866644501686,0.0072392718866467,0.0467806980013847,0.0395414233207702,0.0112439272925257,0.0015156040899455,0.0135865714401006,0.0111708957701921,5.4786057472229,139.2569122314453,3.283383512496949,0
S15,window2,2,0,baseline,1,180.0,240.0,1.0,0.0,0.0,0,0,0.0213541666666666,0,72,0,0.943661971830986,0.676056338028169,0.943661971830986,0.8378080985915493,0.8297474560719793,1.0,0.6466044187545776,0.5544554455445545,1,0.6542356397481432,0.8450318191176891,0.7719400321870418,0.7854514183521962,0.8450318191176891,0,1.062668800354004,1.0,0.6080791663990586,-0.1510138402073573,1,1.0,0,907.0,0.0045204814523458,0.0056912857107818,0.0399706810712814,0.0342793948948383,0.00857341196388,0.0013917125761508,0.0115181896835565,0.0096059879288077,5.618514537811279,59.908653259277344,3.283383512496949,0
S15,window3,3,0,baseline,1,240.0,300.0,1.0,0.0,0.0,0,0,0.02265625,0,75,0,0.9864864864864864,0.7567567567567568,0.9864864864864864,0.793285472972973,0.7795667263768018,0.9999999403953552,0.5959464311599731,0.5377800937988536,1,0.6566386813713615,0.7815558026432884,0.7344330608854794,0.4773807109304978,0.7815558026432884,0,1.2797324657440186,1.0,0.6338700179130405,-0.1307840089826364,1,1.0,0,906.0,0.0036572979297488,0.0061428193002939,0.0391551181674003,0.0330122970044612,0.0096579156816005,0.0012008212506771,0.0089550670236349,0.0075970599427819,5.423630237579346,133.452392578125,3.283383512496949,0
S15,window4,4,0,baseline,1,300.0,360.0,1.0,0.0,0.0,0,0,0.0216145833333333,0,80,0,0.9873417721518988,0.810126582278481,0.9873417721518988,0.743868670886076,0.933921625170216,1.0,0.6516598463058472,0.5403856175091193,1,0.8026869495941591,0.5122415027448799,0.7454369827580704,0.778741555955688,0.8026869495941591,0,1.3606512546539309,1.0,0.701695474892837,-0.0760132645935218,1,1.0,0,864.0,0.0034029451198875,0.006878956221044,0.0473393015563488,0.0404603444039821,0.0110162021592259,0.0012596021406352,0.008801944553852,0.0073728789575397,5.303557872772217,61.73162841796875,3.283383512496949,0
S15,window6,6,0,baseline,1,420.0,480.0,1.0,0.0,0.0,0,0,0.0213541666666666,0,76,0,0.9866666666666668,0.68,0.9866666666666668,0.785625,0.8462413766823648,1.0,0.912328004837036,0.6039603960396039,1,0.7280695610864457,0.8444127664852272,0.5800044836326582,0.7032124859415549,0.8444127664852272,0,1.4803528785705566,1.0,0.6232057463380428,-0.1371063224960754,1,1.0,0,931.0,0.0037892665714025,0.0065936362370848,0.0424179621040821,0.0358243249356746,0.0101648643612861,0.0016845390200614,0.0113979969173669,0.0093609811738133,5.426802635192871,75.23804473876953,3.283383512496949,0
S15,window7,7,0,baseline,1,480.0,540.0,1.0,0.0,0.0,0,0,0.021875,0,83,0,1.0,0.8170731707317073,1.0,0.7164634146341463,0.9472977119356376,1.0,0.81214439868927,0.6498176133402814,1,0.8486936649810108,0.6711485725076416,0.7163638112417802,0.8885110290844911,0.8885110290844911,0,1.2179734706878662,1.0,0.7110185818733742,-0.0680536207965784,1,1.0,0,956.0,0.0058592418208718,0.0073755988851189,0.0483046397566795,0.0409290418028831,0.010744803585112,0.0022040246985852,0.0178844295442104,0.0153343314304947,5.755663871765137,45.61774444580078,3.283383512496949,0
S15,window8,8,0,baseline,1,540.0,600.0,1.0,0.0,0.0,0,0,0.021875,0,87,0,0.9883720930232558,0.5465116279069767,0.9883720930232558,0.6696947674418605,0.6406898373312024,0.8223779201507568,2.531039237976074,0.8843147472642001,1,0.7608496219603107,0.8231560987971714,0.7685072758943874,0.7468612755622961,0.8231560987971714,0,3.2867519855499268,1.0,0.5084860209668026,-0.272605153652766,1,1.0,0,968.0,0.0082318428903818,0.0076750968582928,0.0465803071856498,0.0389052107930183,0.0094525478780269,0.0036972388625144,0.031235821545124,0.0255287680774927,6.197997570037842,9.253012657165527,3.283383512496949,0
S15,window9,9,0,baseline,1,600.0,660.0,1.0,0.0,0.0,0,0,0.021875,0,79,0,0.9871794871794872,0.6666666666666666,0.9871794871794872,0.7612179487179487,0.761399681466651,0.948516845703125,0.9132108688354492,0.7378843147472642,1,0.7558810617775374,0.8647513637559365,0.6831281267398803,0.3694987228268582,0.8647513637559365,0,1.3750466108322144,1.0,0.5925224685425595,-0.1750849707716586,1,1.0,0,880.0,0.0047275349497795,0.0061787255108356,0.0435751006007194,0.0373963750898838,0.00884953700006,0.0019628955051302,0.0169343687593936,0.0140084167942404,5.6521196365356445,87.06106567382812,3.283383512496949,0
S15,window10,10,0,baseline,1,660.0,720.0,1.0,0.0,0.0,0,0,0.02265625,0,85,0,0.988095238095238,0.7976190476190477,0.988095238095238,0.7020089285714286,0.9227544510405632,1.0,0.5189645886421204,0.4596143824908806,1,0.648670998063693,0.8572690627769598,0.7069700545604509,0.6010941239756731,0.8572690627769598,0,0.6816501617431641,0.6816501617431641,0.7253279858045194,0.2359432129217387,1,1.0,0,917.0,0.0035084709525108,0.0059228190220892,0.0376600250601768,0.0317372046411037,0.0089680096134543,0.0016357894055545,0.0122864721342921,0.0102609852328896,5.5116777420043945,58.9031982421875,3.283383512496949,0
S15,window11,11,0,baseline,1,720.0,780.0,1.0,0.0,0.0,0,0,0.02109375,0,79,0,1.0,0.8205128205128205,1.0,0.766426282051282,0.6686438418483418,0.798509955406189,0.2889977693557739,0.4085461177696717,1,0.251866654342657,0.1206952951822777,0.1566476608961042,-0.1436964454039012,0.251866654342657,0,0.1933596283197403,0.1933596283197403,0.7094623179276567,0.6195826671477385,1,1.0,0,930.0,0.0064689801074564,0.0072979317046701,0.0430655442178249,0.0357676111161708,0.009064040146768,0.0036151674576103,0.0257560759782791,0.0213305354118347,6.090898513793945,34.98590469360352,3.283383512496949,0
S15,window12,12,0,baseline,1,780.0,840.0,1.0,0.0,0.0,0,0,0.0216145833333333,0,82,0,1.0,0.7777777777777778,1.0,0.7361111111111112,0.939414249151734,1.0,0.2001968324184417,0.2636789994788953,1,0.6789101304115694,0.0360333210933054,0.5843256579508274,0.3329874265890909,0.6789101304115694,0,0.192740336060524,0.192740336060524,0.7736613522505789,0.7254465595607429,1,1.0,0,916.0,0.0063334917649626,0.006566708907485,0.0410571843385696,0.0344904735684394,0.0082179857417941,0.0030435682274401,0.0232554841786623,0.0184018928557634,6.063170433044434,53.71946716308594,3.283383512496949,0
S15,window13,13,0,baseline,1,840.0,900.0,1.0,0.0,0.0,0,0,0.0205729166666666,0,86,0,1.0,0.8470588235294118,1.0,0.6931985294117647,0.9601475757933072,1.0,0.6442184448242188,0.4674309536216779,1,0.7486304306578022,0.542766780339606,0.6521553049940894,0.8119371234087932,0.8119371234087932,0,0.8814440369606018,0.8814440369606018,0.7387233984536967,0.0627105040465485,1,1.0,0,900.0,0.0026957427617162,0.0065994407050311,0.0440219491720199,0.0374225117266178,0.0108043560758233,0.0012045137118548,0.0087107568979263,0.0072691412642598,5.143179893493652,73.61331939697266,3.283383512496949,0
S15,window14,14,0,baseline,1,900.0,960.0,1.0,0.0,0.0,0,0,0.0213541666666666,0,82,0,0.9876543209876544,0.8888888888888888,0.9876543209876544,0.7368827160493827,0.9784014064759672,1.0,0.4374650120735168,0.4544033350703491,1,0.7292847152942477,0.5527074360677798,0.6118966219086023,0.7533815057508685,0.7533815057508685,0,0.6076616048812866,0.6076616048812866,0.7858406812077479,0.3511362776019027,1,1.0,0,906.0,0.0035312003456056,0.0058468147180974,0.0375020503997802,0.0316552370786666,0.0089355008676648,0.0016006506048142,0.0124332346022129,0.0101059731096029,5.401215553283691,59.18413543701172,3.283383512496949,0
S15,window15,15,0,baseline,1,960.0,1020.0,1.0,0.0,0.0,0,0,0.02109375,0,83,0,0.9878048780487804,0.6951219512195121,0.9878048780487804,0.7124618902439024,0.7251190483799158,1.0,1.163009524345398,0.5414278269932257,1,0.8062304044071071,0.774926386685981,0.8337787174539606,0.7791057924410818,0.8337787174539606,0,1.915760517120361,1.0,0.5931454706115357,-0.1626226769294112,1,1.0,0,903.0,0.0047071110457181,0.0059414785355329,0.0414168573915958,0.035475380718708,0.0085040386766195,0.0019415384158492,0.0145914908498525,0.0116674751043319,5.712425231933594,58.83051681518555,3.283383512496949,0
S15,window16,16,0,baseline,1,1020.0,1080.0,1.0,0.0,0.0,0,0,0.0223958333333333,0,81,0,1.0,0.675,1.0,0.7373046875,0.7168041530982021,0.8437407314777374,1.0009300708770752,0.6466909848879625,1,0.7834193698499587,0.7368760219495536,0.6465293954558491,0.8081865887593158,0.8081865887593158,0,1.687803864479065,1.0,0.5850412459294606,-0.2073637788560151,1,1.0,0,940.0,0.0045677535235881,0.0069138812832534,0.0467815957963466,0.0398677140474319,0.0102269537746906,0.0019417118746787,0.0150817576795816,0.012302191928029,5.637058734893799,131.1223602294922,3.283383512496949,0
S15,window17,17,0,baseline,1,1080.0,1140.0,1.0,0.0,0.0,0,0,0.0223958333333333,0,82,0,0.9876543209876544,0.654320987654321,0.9876543209876544,0.7337962962962963,0.7138178164694299,1.0,1.428532361984253,0.7154768108389786,1,0.7988637698206515,0.8235552168528452,0.798978211320532,0.8055983044282246,0.8235552168528452,0,1.821926236152649,1.0,0.5734046042000882,-0.1777183853888153,1,1.0,0,894.0,0.0064952406100928,0.0074906283989548,0.0488808900117874,0.0413902588188648,0.0108208460733294,0.0020529951434582,0.0190288722515106,0.0157144609838724,5.730629920959473,90.95215606689452,3.283383512496949,0
S15,window18,18,0,baseline,1,1140.0,1200.0,1.0,0.0,0.0,0,0,0.021875,0,85,0,1.0,0.7142857142857143,1.0,0.7053571428571429,0.615267490512933,0.8846002519130707,0.7297468185424805,0.6258467952058364,1,0.8234212389864797,0.796606371598678,0.7766746508182859,0.6985527268053148,0.8234212389864797,0,1.1176701784133911,1.0,0.5702945328681657,-0.2107473501077847,1,1.0,0,902.0,0.0045679397881031,0.0067159282043576,0.0446278303861618,0.0379119031131267,0.0097809191793203,0.0019946810789406,0.0147192347794771,0.0118867522105574,5.655344486236572,69.438720703125,3.283383512496949,0
S15,window19,19,0,baseline,1,1200.0,1260.0,1.0,0.0,0.0,0,0,0.0216145833333333,0,84,0,1.0,0.8433734939759037,1.0,0.7191265060240963,0.9307689986668528,1.0,0.635689377784729,0.6727462219906201,1,0.7325868807928125,0.8412660140395011,0.6484741025588092,0.7034067935809605,0.8412660140395011,0,1.003367900848389,1.0,0.7165800971904174,-0.0642957021405157,1,1.0,0,943.0,0.0045754420571029,0.0051808939315378,0.0365494899451732,0.0313685983419418,0.0069847982376813,0.0022086920216679,0.0159218125045299,0.0131858466193079,5.756040573120117,409.8515319824219,3.283383512496949,0
S15,window25,25,1,stress,2,3420.0,3480.0,1.0,0.0,0.0,0,0,0.0205729166666666,0,79,0,1.0,0.8205128205128205,1.0,0.7660256410256411,0.8412777566135777,1.0,0.3144818842411041,0.4090672225117248,1,0.7803062562736265,0.5774783459437166,0.5849175743479276,0.7706310077573357,0.7803062562736265,0,0.3460926115512848,0.3460926115512848,0.745979194034073,0.5603806737559558,1,1.0,0,916.0,0.0037056850269436,0.0058529283851385,0.0421590693295002,0.0363061428070068,0.0086303045973181,0.0017547802999615,0.0130034089088439,0.0108076315373182,5.604609489440918,71.92723083496094,3.283383512496949,0
S15,window26,26,1,stress,2,3480.0,3540.0,1.0,0.0,0.0,0,0,0.0223958333333333,0,90,0,1.0,0.8089887640449438,1.0,0.6648525280898876,0.907126262405427,0.9683857560157776,0.4889057874679565,0.4976550286607608,1,0.6425376906097519,0.7464369069437362,0.6213929015676974,0.5284538803035571,0.7464369069437362,0,0.8093789219856262,0.8093789219856262,0.7147954921410431,0.102195711833158,1,1.0,0,911.0,0.0028575086034834,0.0048560369759798,0.0398660004138946,0.03500996530056,0.0074266251176595,0.0013724444434046,0.0109968613833189,0.0092910658568143,5.071414947509766,554.70068359375,3.283383512496949,0
S15,window27,27,1,stress,2,3540.0,3600.0,1.0,0.0,0.0,0,0,0.02109375,0,86,0,1.0,0.8352941176470589,1.0,0.6954044117647059,0.9299266667795304,1.0,0.4728647768497467,0.5752996352266806,1,0.5949388257680878,0.8400128317452192,0.6355028899500081,0.6393723864498433,0.8400128317452192,0,0.5619286894798279,0.5619286894798279,0.7569027781446999,0.3711412125091724,1,1.0,0,875.0,0.005788245704025,0.0070722205564379,0.0461954474449157,0.0391232259571552,0.0100194020196795,0.0025050826370716,0.0181435365229845,0.0149829052388668,5.626742839813232,226.1964111328125,3.283383512496949,0
S15,window28,28,1,stress,2,3600.0,3660.0,1.0,0.0,0.0,0,0,0.02109375,0,76,0,0.9866666666666668,0.8666666666666667,0.9866666666666668,0.7870833333333334,0.9113496696328536,1.0,0.4122811555862427,0.5362167795726941,1,0.5770099590476927,0.5674459629792274,0.5025061355298513,-0.0057317856422171,0.5770099590476927,0,0.3637776374816894,0.3637776374816894,0.7810271371416871,0.5713931132598573,1,1.0,0,941.0,0.0032304795458912,0.005533164832741,0.0400920137763023,0.0345588475465774,0.0086491918191313,0.0014477418735623,0.0124815329909324,0.0104214502498507,4.961016654968262,369.7169494628906,3.283383512496949,0
S15,window29,29,1,stress,2,3660.0,3720.0,1.0,0.0,0.0,0,0,0.021875,0,78,0,0.987012987012987,0.7272727272727273,0.987012987012987,0.7518262987012987,0.819833429018828,0.9755711257457732,0.8970428705215454,0.7024491922876498,1,0.5859659257471787,0.8308632060457276,0.7190853579201214,0.5066806127708483,0.8308632060457276,0,1.4569990634918213,1.0,0.6342617170173369,-0.135564445724434,1,1.0,0,931.0,0.0040165465325117,0.0058255223557353,0.0422712489962577,0.0364457257091999,0.0084760067984461,0.0019183829426765,0.0138225303962826,0.0111819757148623,5.638763427734375,143.51832580566406,3.283383512496949,0
S15,window30,30,1,stress,2,3720.0,3780.0,1.0,0.0,0.0,0,0,0.0221354166666666,0,84,0,1.0,0.8192771084337349,1.0,0.7063253012048193,0.8953525171358164,1.0,0.5487613677978516,0.6227201667535175,1,-0.5389804388858207,0.4453310211554812,0.4184876411528025,-0.4256548656695564,0.4453310211554812,0,0.5928900241851807,0.5928900241851807,0.7370275960957208,0.326731237628894,1,1.0,0,909.0,0.0043050572276115,0.0060879955999553,0.0408282056450843,0.034740213304758,0.0088473120704293,0.0019215550273656,0.0155177759006619,0.0129689695313572,5.637781143188477,67.38943481445312,3.283383512496949,0
S15,window31,31,2,meditation,4,4740.0,4800.0,1.0,0.0,0.0,0,0,0.02109375,0,70,0,1.0,0.7971014492753623,1.0,0.855072463768116,0.7545789884426531,1.0,0.2938321530818939,0.3934340802501302,1,0.3210863747415022,0.4638656507781935,0.5423112038003429,0.6182181352624229,0.6182181352624229,0,0.4477130174636841,0.4477130174636841,0.7004429744965723,0.4300621644295879,1,1.0,0,863.0,0.002027534879744,0.0055199339985847,0.0421927906572818,0.0366728566586971,0.0092320935800671,0.0009325533173978,0.0070973341353237,0.0058541540056467,4.927814483642578,97.06356048583984,3.283383512496949,0
S15,window32,32,2,meditation,4,4800.0,4860.0,1.0,0.0,0.0,0,0,0.0260416666666666,0,69,0,1.0,0.8529411764705882,1.0,0.8635110294117647,0.9175430696471434,1.0,0.2045929282903671,0.2746221990620114,1,-0.5152944888210754,0.140775422709626,0.1117753232615237,-0.4817897973475761,0.140775422709626,0,0.1737022995948791,0.1737022995948791,0.7990691615228903,0.7615658207580831,1,1.0,0,961.0,0.0062856040894985,0.0058348262682557,0.0347158052027225,0.0288809798657894,0.0065950397402048,0.0034496542066335,0.0277403723448514,0.0225118156522512,6.257486820220947,139.6146697998047,3.283383512496949,0
S15,window33,33,2,meditation,4,4860.0,4920.0,1.0,0.0,0.0,0,0,0.0286458333333333,0,64,0,1.0,0.8095238095238095,1.0,0.9379960317460316,0.932200867561324,1.0,0.1333082467317581,0.2928608650338718,1,-0.0464403214029059,-0.123129943685597,-0.0882955215500422,-0.0758743314649954,-0.0464403214029059,0,0.1098596155643463,0.1098596155643463,0.7924838225214864,0.8160477441831275,1,1.0,0,903.0,0.0064259343780577,0.0058276103809475,0.0340308062732219,0.0282031949609518,0.0067942766472697,0.0032375864684581,0.0264074299484491,0.0219108182936906,6.169169902801514,107.86463165283205,3.283383512496949,0
S15,window34,34,2,meditation,4,4920.0,4980.0,1.0,0.0,0.0,0,0,0.0317708333333333,0,66,0,1.0,0.8307692307692308,1.0,0.908653846153846,0.9491379596687296,1.0,0.314661830663681,0.460656591974987,1,-0.3003628576459022,,-0.288866251395981,-0.361743863895525,-0.288866251395981,0,0.1838964074850082,0.1838964074850082,0.7986594394598104,0.7526188516629435,1,1.0,0,899.0,0.0062333196401596,0.0061297942884266,0.0333982408046722,0.0272684469819068,0.0071390373632311,0.0036027766764163,0.0245264675468206,0.020009521394968,6.140188694000244,125.98839569091795,3.283383512496949,0
S15,window35,35,2,meditation,4,4980.0,5040.0,1.0,0.0,0.0,0,0,0.0247395833333333,0,68,0,1.0,0.9402985074626866,1.0,0.882929104477612,0.958198472378518,1.0,0.2827598750591278,0.4200104220948411,1,-0.56730282990037,-0.4802942511501717,-0.0838276553414673,-0.6576792727253211,-0.0838276553414673,0,0.1862192749977111,0.1862192749977111,0.8449570171988589,0.7854198953357243,1,1.0,0,918.0,0.0050931721925735,0.0054325461387634,0.0313328504562377,0.0259003024548292,0.006247614044696,0.0030672471038997,0.0241425223648548,0.0199148170650005,6.153780937194824,231.38449096679688,3.283383512496949,0
S16,window1,1,0,baseline,1,120.0,180.0,1.0,0.0,0.0,0,0,0.0231770833333333,0,76,0,1.0,0.6133333333333333,1.0,0.7785416666666667,0.6203244054184505,1.0,0.8452070951461792,0.658676393955185,1,0.8070215764715851,0.7110232234319971,0.7504432412967948,0.7821714341248597,0.8070215764715851,0,1.4002147912979126,1.0,0.5314306549588684,-0.2109188986453873,1,1.0,0,901.0,0.0056867655366659,0.0063571673817932,0.0416434444487094,0.0352862775325775,0.008085548877716,0.0028779851272702,0.0241507869213819,0.0206011682748794,5.987125873565674,124.21273803710938,1.7327090740203859,0
S16,window2,2,0,baseline,1,180.0,240.0,1.0,0.0,0.0,0,0,0.0221354166666666,0,65,0,1.0,0.875,1.0,0.931640625,0.9269585160751852,0.4174347221851349,0.4890643358230591,0.4559666492965086,1,0.6195901852665194,0.6606349308678099,0.6643957137501291,0.8438533265338863,0.8438533265338863,0,0.6434972286224365,0.6434972286224365,0.7637378319603119,0.1551010809426435,1,1.0,0,870.0,0.0060023460537195,0.0066843181848526,0.0412022173404693,0.0345178991556167,0.0087747061625123,0.0028657112270593,0.0217157192528247,0.0176610425114631,5.9348225593566895,25.901351928710938,1.7327090740203859,0
S16,window3,3,0,baseline,1,240.0,300.0,1.0,0.0,0.0,0,0,0.0223958333333333,0,72,0,0.9859154929577464,0.7323943661971831,0.9859154929577464,0.8340669014084507,0.6367112646044707,0.8589507937431335,0.7975155711174011,0.5648775403856175,1,0.826739926096084,0.5791101055863958,0.7550305637301281,0.7967744158838952,0.826739926096084,0,1.0231863260269165,1.0,0.5811542244517637,-0.2091830769623947,1,1.0,0,875.0,0.0062759132124483,0.0066095599904656,0.0399085618555545,0.0332990027964115,0.0087164472788572,0.0026955725625157,0.0219188556075096,0.0188633501529693,5.909735679626465,88.39240264892578,1.7327090740203859,0
S16,window5,5,0,baseline,1,360.0,420.0,1.0,0.0,0.0,0,0,0.0213541666666666,0,69,0,1.0,0.75,1.0,0.8660386029411765,0.9039561376992432,0.4722875952720642,1.0597126483917236,0.6420010422094841,1,0.7878617902459979,0.8349241998537434,0.8154568886179219,0.6859352461559872,0.8349241998537434,0,1.5992838144302368,1.0,0.6711868413097729,-0.2309390667571731,1,1.0,0,873.0,0.0056108580902218,0.007227118127048,0.0443914011120796,0.037164282053709,0.0100734755396842,0.0023822411894798,0.019528891891241,0.0163710042834281,5.812427520751953,26.611194610595703,1.7327090740203859,0
S16,window6,6,0,baseline,1,420.0,480.0,1.0,0.0,0.0,0,0,0.021875,0,68,0,1.0,0.7014925373134329,1.0,0.886660447761194,0.8875789939267418,0.5635216236114502,0.7275274991989136,0.5966649296508598,1,0.8529193523453761,0.678031993875864,0.8223956888295049,0.8089236960742984,0.8529193523453761,0,1.1303503513336182,1.0,0.6468707131033956,-0.226777084421422,1,1.0,0,935.0,0.0050342916510999,0.0058596921153366,0.0386369638144969,0.0327772721648216,0.0075512062758207,0.0025604772381484,0.0196352358907461,0.0163935106247663,6.049899578094482,38.43393707275391,1.7327090740203859,0
S16,window7,7,0,baseline,1,480.0,540.0,1.0,0.0,0.0,0,0,0.02265625,0,78,0,0.987012987012987,0.5844155844155844,0.987012987012987,0.7741477272727273,0.7771260829956926,1.0,0.5033566951751709,0.4934861907243356,1,0.7506317528984302,0.7995119012259273,0.6015346271967634,0.6707494927093782,0.7995119012259273,0,0.6113864779472351,0.6113864779472351,0.6031680082728155,0.2056223155289607,1,1.0,0,954.0,0.006477846764028,0.0077659678645431,0.0467634461820125,0.0389974787831306,0.0104395477101206,0.0031755324453115,0.0246644057333469,0.0198185518383979,5.841636657714844,120.15667724609376,1.7327090740203859,0
S16,window9,9,0,baseline,1,600.0,660.0,1.0,0.0,0.0,0,0,0.0208333333333333,0,73,0,0.9722222222222222,0.5972222222222222,0.9722222222222222,0.8279079861111112,0.756098084773692,0.8947082757949829,0.5856326818466187,0.7180823345492444,1,0.7540394366948323,0.4692127220304916,0.8219912406903354,0.8590418233707114,0.8590418233707114,0,0.8253326416015625,0.8253326416015625,0.5776294946052847,-0.0390199403482827,1,1.0,0,988.0,0.0066514140926301,0.0068315253593027,0.0428445972502231,0.0360130704939365,0.0081807430833578,0.003662527538836,0.0299564413726329,0.0257863216102123,6.163427352905273,288.6993713378906,1.7327090740203859,0
S16,window10,10,0,baseline,1,660.0,720.0,1.0,0.0,0.0,0,0,0.0216145833333333,0,62,0,1.0,0.8360655737704918,1.0,0.9633709016393442,0.7428508227606266,0.920034259557724,0.4248619079589844,0.6013548723293382,1,0.8469413370702366,0.3839959307781351,0.6996326801125249,0.3100009157782319,0.8469413370702366,0,0.5903170108795166,0.5903170108795166,0.6982497752484332,0.2762239318312185,1,1.0,0,894.0,0.005632922053337,0.0061796326190233,0.0397934317588806,0.0336137972772121,0.0081316204741597,0.0024591581895947,0.0207689702510833,0.0178402569144964,5.963171482086182,20.707109451293945,1.7327090740203859,0
S16,window11,11,0,baseline,1,720.0,780.0,1.0,0.0,0.0,0,0,0.0223958333333333,0,74,0,1.0,0.7534246575342466,1.0,0.8127140410958904,0.9375874061416324,1.0,0.5486459136009216,0.5820739968733716,1,0.7752089531129278,0.5533091749904591,0.7922706130397238,0.7256623300613116,0.7922706130397238,0,0.7629061341285706,0.7629061341285706,0.7063554714433312,0.1475181146671115,1,1.0,0,887.0,0.0062603787519037,0.0065513085573911,0.0420157983899116,0.0354644916951656,0.008176595903933,0.0031082229688763,0.0257399342954158,0.0221937708556652,6.060482025146484,39.8477668762207,1.7327090740203859,0
S16,window12,12,0,baseline,1,780.0,840.0,1.0,0.0,0.0,0,0,0.0221354166666666,0,74,0,1.0,0.726027397260274,1.0,0.8043664383561644,0.6061977463551991,0.8232824504375458,0.6685449481010437,0.583637311099531,1,0.7131201614185413,0.7831288184491781,0.6423356750841288,0.6479086049398021,0.7831288184491781,0,0.9185732007026672,0.9185732007026672,0.5804129627404025,-0.1433949323263987,1,1.0,0,912.0,0.0051965177990496,0.0061550708487629,0.0391064919531345,0.0329514220356941,0.0081358673050999,0.0025341659784317,0.0192151814699172,0.0165680833160877,5.981516361236572,28.193214416503903,1.7327090740203859,0
S16,window13,13,0,baseline,1,840.0,900.0,1.0,0.0,0.0,0,0,0.0216145833333333,0,72,0,1.0,0.6619718309859155,1.0,0.8261443661971831,0.8554545140152214,0.4829496294260025,0.7157549858093262,0.5403856175091193,1,0.8305696279225019,0.5553672258569802,0.8397184265593751,0.8442155519778183,0.8442155519778183,0,0.9991331100463868,0.9991331100463868,0.621511775594294,-0.2659405248903062,1,1.0,0,965.0,0.0056943297386169,0.0068575995974242,0.0430974438786506,0.0362398438155651,0.0088642016053199,0.0031547024846076,0.0218994971364736,0.0178303215652704,6.030162334442139,106.11136627197266,1.7327090740203859,0
S16,window14,14,0,baseline,1,900.0,960.0,1.0,0.0,0.0,0,0,0.0223958333333333,0,68,0,1.0,0.7910447761194029,1.0,0.8901585820895522,0.8296129690745953,0.6460676789283752,0.5590171217918396,0.4924439812402293,1,0.8187160563150814,0.7748553801580976,0.8671496774136866,0.4212938281561296,0.8671496774136866,0,0.9737067818641664,0.9737067818641664,0.6679311229837231,-0.1674731870276027,1,1.0,0,907.0,0.0043389326892793,0.0055371914058923,0.0432138256728649,0.0376766324043273,0.0076423431746661,0.0019925013184547,0.016055503860116,0.0139660472050309,5.82459020614624,70.30183410644531,1.7327090740203859,0
S16,window17,17,0,baseline,1,1080.0,1140.0,1.0,0.0,0.0,0,0,0.0213541666666666,0,63,0,0.9838709677419356,0.9032258064516128,0.9838709677419356,0.949344758064516,0.9945470002437508,0.2031439542770385,0.426798403263092,0.4627410109431996,1,0.6779365265136948,0.7321744113177961,0.5999256681949096,0.3746865171163706,0.7321744113177961,0,0.6208285093307495,0.6208285093307495,0.7943457652690825,0.1463361647833188,1,1.0,0,866.0,0.0044651143252849,0.0057833781465888,0.0371292755007743,0.0313459001481533,0.0080228066071867,0.0021353331394493,0.0167676284909248,0.0139255626127123,5.777793884277344,33.81266403198242,1.7327090740203859,0
S16,window19,19,0,baseline,1,1200.0,1260.0,1.0,0.0,0.0,0,0,0.0223958333333333,0,73,0,1.0,0.6944444444444444,1.0,0.8133680555555556,0.6613949409914787,0.9167582392692566,0.7517770528793335,0.5992704533611256,1,0.8082589139685122,0.6543739542673261,0.7381346856904247,0.8986114124393305,0.8986114124393305,0,1.1691913604736328,1.0,0.5761962600752214,-0.1971283716014829,1,1.0,0,917.0,0.0073856879025697,0.0076013873331248,0.0450951159000396,0.0374937281012535,0.0094438754022121,0.0036591198295354,0.028782445937395,0.0244681127369403,6.042449951171875,287.9079284667969,1.7327090740203859,0
S16,window22,22,1,stress,2,2160.0,2220.0,1.0,0.0,0.0,0,0,0.0221354166666666,0,111,0,1.0,0.8454545454545455,1.0,0.5387784090909091,0.8422652346821471,0.958022564649582,1.3374836444854736,0.9072433559145388,1,-0.0041021290577651,0.7770551522196377,0.7131918245655212,0.0015173802036202,0.7770551522196377,0,1.6458340883255005,1.0,0.6908613885864624,-0.0962916865307041,1,1.0,0,955.0,0.0063297650776803,0.0082022920250892,0.0485235676169395,0.0403212755918502,0.0110393045470118,0.0033682435750961,0.0240025520324707,0.0198695249855518,5.927128314971924,69.42517852783203,1.7327090740203859,0
S16,window23,23,1,stress,2,2220.0,2280.0,1.0,0.0,0.0,0,0,0.02109375,0,91,0,0.9888888888888888,0.7333333333333333,0.9888888888888888,0.6548611111111111,0.8076491409106162,0.903777003288269,1.164394497871399,0.8785825951016154,1,0.6067959913471715,0.8303299697607326,0.6958387136010548,0.1416596749620733,0.8303299697607326,0,1.537811517715454,1.0,0.633405853384296,-0.1543656861725009,1,1.0,0,947.0,0.0044978088699281,0.0048237033188343,0.0320885479450225,0.0272648464888334,0.0065138023346662,0.0018957033753395,0.0148208877071738,0.0121202962473034,5.880216121673584,311.56707763671875,1.7327090740203859,0
S16,window24,24,1,stress,2,2280.0,2340.0,1.0,0.0,0.0,0,0,0.0221354166666666,0,85,0,0.9761904761904762,0.5714285714285714,0.9761904761904762,0.7007068452380952,0.8068164391460764,0.8171854615211487,0.9911776185035706,0.8384575299635226,1,0.1448630884874855,0.7603642642868381,0.603422830397539,0.0231786349642894,0.7603642642868381,0,1.5064563751220703,1.0,0.5658544555533467,-0.2273328581665271,1,1.0,0,959.0,0.0047809546813368,0.0063844993710517,0.0414065979421138,0.035022098571062,0.0092776240780949,0.0018603522330522,0.0146343577653169,0.0117744673043489,5.716568470001221,80.91149139404297,1.7327090740203859,0
S16,window25,25,1,stress,2,2340.0,2400.0,1.0,0.0,0.0,0,0,0.0208333333333333,0,129,0,1.0,0.8828125,1.0,0.4642333984375,0.8802606002996576,0.9914707243442537,0.8902097344398499,0.8405419489317353,1,0.0639688476876816,0.5992956970380389,0.63162383140005,-0.0695352154346679,0.63162383140005,0,1.249835968017578,1.0,0.7172031800898974,-0.0672234188390221,1,1.0,0,953.0,0.0041543049737811,0.0056049670092761,0.0382282249629497,0.0326232574880123,0.007965232245624,0.0018927291966974,0.0144723448902368,0.0120669342577457,5.741835117340088,92.9195327758789,1.7327090740203859,0
S16,window26,26,1,stress,2,2400.0,2460.0,1.0,0.0,0.0,0,0,0.02109375,0,137,0,1.0,0.9485294117647058,1.0,0.4396829044117647,0.8901501047349127,1.0,0.7361398339271545,0.8791036998436685,1,0.5287011833943639,0.694187704612291,0.5381299124300147,-0.0426620705566508,0.694187704612291,0,0.9300645589828492,0.9300645589828492,0.7534503402280711,0.0270317907302908,1,1.0,0,964.0,0.0050567258149385,0.0059096137993037,0.0378898568451404,0.0319802425801754,0.0078724464401602,0.0026231054216623,0.0186338052153587,0.0152007136493921,5.7813401222229,165.97702026367188,1.7327090740203859,0
S16,window27,27,1,stress,2,2460.0,2520.0,1.0,0.0,0.0,0,0,0.0221354166666666,0,131,0,1.0,1.0,1.0,0.4561298076923077,0.8976208048748099,1.0,0.7030307054519653,0.8483585200625325,1,0.0769134260560858,0.2138888939218586,0.1600318613420359,-0.1929981290017046,0.2138888939218586,0,0.9082753658294678,0.9082753658294678,0.7784587048794962,0.0661298353892347,1,1.0,0,991.0,0.0117554841563105,0.0100968303158879,0.0582075044512748,0.0481106713414192,0.0115668503567576,0.0056484229862689,0.0453915186226367,0.0369865484535694,6.302676677703857,25.44489479064941,1.7327090740203859,0
S16,window28,28,1,stress,2,2520.0,2580.0,1.0,0.0,0.0,0,0,0.0231770833333333,0,126,0,1.0,0.992,1.0,0.476875,0.8986868393558429,0.9796529710292816,0.6785166263580322,0.8379364252214695,1,0.2444265087029762,0.2637194854912247,0.1826721322740951,-0.3880005277733117,0.2637194854912247,0,0.8996925354003906,0.8996925354003906,0.7764367982667139,0.0674924171958903,1,1.0,0,959.0,0.0106568085029721,0.0098504936322569,0.0524404644966125,0.0425899699330329,0.0112278014421463,0.0053462889045476,0.0433630384504795,0.0361491851508617,6.289263248443604,18.075172424316406,1.7327090740203859,0
S16,window29,29,1,stress,2,2580.0,2640.0,1.0,0.0,0.0,0,0,0.0213541666666666,0,111,0,1.0,0.9,1.0,0.5428977272727272,0.8705926604130848,0.9286633729934692,1.048010230064392,0.8686816050026055,1,0.7771108829624876,0.376960715477695,0.813637296389861,0.8085602151276436,0.813637296389861,0,1.4945135116577148,1.0,0.7211777981239255,-0.0801859916483613,1,1.0,0,913.0,0.0036487067118287,0.005776825826615,0.0400755628943443,0.0342987403273582,0.0086452094838023,0.0018127495422959,0.0131947016343474,0.0107346409931778,5.334628582000732,161.55252075195312,1.7327090740203859,0
S16,window30,30,2,meditation,4,5040.0,5100.0,1.0,0.0,0.0,0,0,0.0216145833333333,0,78,0,1.0,0.7922077922077922,1.0,0.7743506493506493,0.6662219630690096,0.4983798265457153,0.4908658564090729,0.4418968212610735,1,0.4988723725010542,0.5511985720027781,0.5408481778969694,-0.4516293291760581,0.5511985720027781,0,0.484239250421524,0.484239250421524,0.6683257807616675,0.2445735346444948,1,1.0,0,906.0,0.0044206506572663,0.0062528802081942,0.0409822314977645,0.0347293503582477,0.0092632379382848,0.0018581587355583,0.0131901735439896,0.0107043283060193,5.566525936126709,85.98503875732422,1.7327090740203859,0
S16,window31,31,2,meditation,4,5100.0,5160.0,1.0,0.0,0.0,0,0,0.0216145833333333,0,77,0,1.0,0.868421052631579,1.0,0.7777549342105263,0.8083422165139826,1.0,0.3477306067943573,0.4898384575299635,1,0.1763517850154578,0.4362913165621892,0.4891482190395112,-0.5967886012606235,0.4891482190395112,0,0.259233683347702,0.259233683347702,0.7639477176720562,0.6533781865702672,1,1.0,0,919.0,0.0038400224875658,0.0055423988960683,0.0341264493763446,0.028584050014615,0.0080537097528576,0.0019642389379441,0.0148198148235678,0.0119731351733207,5.501681327819824,80.85662078857422,1.7327090740203859,0
S16,window32,32,2,meditation,4,5160.0,5220.0,1.0,0.0,0.0,0,0,0.021875,0,71,0,0.9857142857142858,0.8,0.9857142857142858,0.8421875,0.7196015001759599,0.5905865132808685,0.2062674015760421,0.3725898905680042,1,0.2953648063068948,0.1756690976371237,0.3953316829390601,-0.0219438226436402,0.3953316829390601,0,0.1615478545427322,0.1615478545427322,0.7168685217413721,0.603142005964332,1,1.0,0,934.0,0.0032118218950927,0.0047421595081686,0.0378298014402389,0.0330876410007476,0.0069616772234439,0.0015301094390451,0.0113662332296371,0.0092499963939189,5.570822715759277,116.57766723632812,1.7327090740203859,0
S16,window33,33,2,meditation,4,5220.0,5280.0,1.0,0.0,0.0,0,0,0.0234375,0,73,0,1.0,0.8333333333333334,1.0,0.8279079861111112,0.7944498040195351,0.563968151807785,0.186191514134407,0.3011985409067222,1,0.0879996382490974,0.3611201170988964,0.5123943792392034,-0.4608019914788348,0.5123943792392034,0,0.1915360242128372,0.1915360242128372,0.7525146721179101,0.5980684647439929,1,1.0,0,909.0,0.0064189117401838,0.0068756784312427,0.0393905714154243,0.0325148925185203,0.0084889288991689,0.0033480785787105,0.0257745943963527,0.021275345236063,6.092454433441162,28.891820907592773,1.7327090740203859,0
S16,window34,34,2,meditation,4,5280.0,5340.0,1.0,0.0,0.0,0,0,0.0252604166666666,0,70,0,1.0,0.8985507246376812,1.0,0.8623188405797102,0.9229123992088728,0.4981420338153839,0.2450945228338241,0.3892652423137051,1,0.2843679562877929,0.1859281708099446,0.1820814371028504,-0.132219465393629,0.2843679562877929,0,0.1894246935844421,0.1894246935844421,0.81735154025929,0.6354041320629265,1,1.0,0,904.0,0.0067914240062236,0.0071060853078961,0.0401401035487651,0.0330340191721916,0.0084171360358595,0.003872936591506,0.0275246817618608,0.0223899856209754,6.136294841766357,21.614158630371094,1.7327090740203859,0
S16,window35,35,2,meditation,4,5340.0,5400.0,1.0,0.0,0.0,0,0,0.0239583333333333,0,63,0,1.0,0.9193548387096774,1.0,0.9553931451612904,0.9836669643461846,0.2137298285961151,0.1854046732187271,0.2704533611255862,1,0.5742435855286956,0.1169369051547113,0.5220727717310542,0.083471648245151,0.5742435855286956,0,0.1680852323770523,0.1680852323770523,0.8460335015500212,0.6070704174714259,1,1.0,0,930.0,0.0058058844879269,0.005953733343631,0.0353204384446144,0.0293667055666446,0.0074183661490678,0.003031063824892,0.0229737237095832,0.0190058872103691,6.09052848815918,37.24825286865234,1.7327090740203859,0
S17,window1,1,0,baseline,1,120.0,180.0,1.0,0.0,0.0,0,0,0.0213541666666666,0,63,0,0.967741935483871,0.8387096774193549,0.967741935483871,0.944304435483871,0.8758060496931271,0.623124897480011,0.685426652431488,0.5523710265763419,1,0.8349430371403046,0.5237995675281744,0.8198405690849461,0.7552276214381903,0.8349430371403046,0,0.9279568791389464,0.9279568791389464,0.6989783850585596,-0.1080628520230813,1,1.0,0,874.0,0.0044469651766121,0.0062425024807453,0.0416851975023746,0.0354426950216293,0.0089491987600922,0.0021877095568925,0.0176248773932456,0.0149593409150838,5.581820487976074,160.71531677246094,3.038764476776123,0
S17,window2,2,0,baseline,1,180.0,240.0,1.0,0.0,0.0,0,0,0.021875,0,70,0,1.0,0.7971014492753623,1.0,0.8566576086956522,0.8453312174808932,1.0,0.9790048003196716,0.4997394476289734,1,0.7293386453535177,0.5466663900044397,0.831811408272735,0.3838177088457465,0.831811408272735,0,1.337133526802063,1.0,0.6724399449544128,-0.099536760847168,1,1.0,0,905.0,0.0052391840144991,0.0065707126632332,0.0446460135281086,0.0380753017961978,0.0091659426689147,0.002202053554356,0.0192503314465284,0.0162683185189962,5.845181465148926,24.66361427307129,3.038764476776123,0
S17,window3,3,0,baseline,1,240.0,300.0,1.0,0.0,0.0,0,0,0.0236979166666666,0,63,0,1.0,0.935483870967742,1.0,0.9420362903225806,0.9058822148215396,1.0,0.2375169843435287,0.3262115685252735,1,0.334227916906762,0.505348504949239,0.5966801238540237,0.8608717224546337,0.8608717224546337,0,0.1952792108058929,0.1952792108058929,0.8264302917529694,0.7618365041898145,1,1.0,0,919.0,0.0045543885789811,0.0063548837788403,0.0387488976120948,0.0323940142989158,0.0089504141360521,0.0024684760719537,0.0210247095674276,0.0175289381295442,5.441202640533447,159.55958557128906,3.038764476776123,0
S17,window4,4,0,baseline,1,300.0,360.0,1.0,0.0,0.0,0,0,0.0221354166666666,0,65,0,1.0,0.90625,1.0,0.92724609375,0.8285541686170104,0.7800076305866241,0.141277864575386,0.2313705054715998,1,0.850703245278138,0.4218060577631022,0.7268064385048295,0.2049144970702512,0.850703245278138,0,0.1631700694561004,0.1631700694561004,0.7947492436394932,0.7108453803448082,1,1.0,0,874.0,0.0049961572512984,0.0056054731830954,0.0364084541797637,0.0308029800653457,0.0069216261617839,0.0027318536303937,0.0227417424321174,0.0189358256757259,6.032469749450684,38.88699722290039,3.038764476776123,0
S17,window5,5,0,baseline,1,360.0,420.0,1.0,0.0,0.0,0,0,0.0239583333333333,0,66,0,1.0,0.8923076923076924,1.0,0.9060096153846152,0.8587219457860498,0.9882225394248962,0.1432241350412368,0.2449192287649817,1,0.4074582013949316,0.2769743221995049,0.6869968835844266,0.3997034355560198,0.6869968835844266,0,0.1496097892522812,0.1496097892522812,0.7995786817336639,0.779818639742763,1,1.0,0,899.0,0.0056555452756583,0.0057320408523082,0.0329131297767162,0.0271810889244079,0.0064321900717914,0.0035197641700506,0.026391165331006,0.0223106425255537,6.216690540313721,38.90413665771485,3.038764476776123,0
S17,window6,6,0,baseline,1,420.0,480.0,1.0,0.0,0.0,0,0,0.0299479166666666,0,67,0,1.0,1.0,1.0,0.9022253787878788,0.9469286145878238,0.6035982370376587,0.0309292636811733,0.0734757686294945,0,-0.2863058250964373,-0.2270403094860531,-0.4182392364045489,-0.3755934348256056,-0.2270403094860531,0,0.0591034591197967,0.0591034591197967,0.8781682384643675,0.8285282537865739,0,1.0,1,834.0,0.0050596497021615,0.0049621229991316,0.0289604924619197,0.0239983685314655,0.0057313446886837,0.0027605313807725,0.0225685071200132,0.0187353678047657,6.079421520233154,185.06431579589844,3.038764476776123,0
S17,window7,7,0,baseline,1,480.0,540.0,1.0,0.0,0.0,0,0,0.0208333333333333,0,68,0,1.0,0.8955223880597015,1.0,0.8773320895522388,0.8700532443541351,0.8447803258895874,0.1225475519895553,0.1688379364252214,1,0.7732779634333478,0.6722466102237572,0.6887472323557929,0.4240405721401231,0.7732779634333478,0,0.2254519760608673,0.2254519760608673,0.7966797309240344,0.6719131329179737,1,1.0,0,902.0,0.0032793832942843,0.0043112998828291,0.033426322042942,0.0291150230914354,0.0059557380154728,0.0016780870500952,0.014870660379529,0.0125852888450026,5.643329620361328,195.68898010253903,3.038764476776123,0
S17,window8,8,0,baseline,1,540.0,600.0,1.0,0.0,0.0,0,0,0.0216145833333333,0,67,0,0.9848484848484848,0.803030303030303,0.9848484848484848,0.8877840909090909,0.9275437190529208,0.5524235963821411,0.847967803478241,0.4663887441375716,1,0.8659397628156853,0.771254757355172,0.7663066311221421,0.7422760762575189,0.8659397628156853,0,1.3725205659866333,1.0,0.6964449338976945,-0.1921293832624466,1,1.0,0,935.0,0.0050173136405646,0.0061061708256602,0.0428178682923316,0.0367116965353488,0.0084636984393,0.0021198522299528,0.0189025606960058,0.0158476345241069,5.847719192504883,47.27677154541016,3.038764476776123,0
S17,window9,9,0,baseline,1,600.0,660.0,1.0,0.0,0.0,0,0,0.0213541666666666,0,78,0,1.0,0.6363636363636364,1.0,0.7700892857142857,0.8379258408023794,0.8494974374771118,1.3830796480178833,0.7561229807191245,1,0.8730633687260904,0.8570037704536113,0.8186258685937341,0.8654050427099031,0.8730633687260904,0,1.8866511583328247,1.0,0.6059232067861683,-0.1872350895210363,1,1.0,0,929.0,0.0073230043053627,0.0073932693339884,0.0435055792331695,0.0361123085021972,0.0090535162016749,0.0037540243938565,0.0284261535853147,0.0236284993588924,6.151590347290039,13.56607437133789,3.038764476776123,0
S17,window10,10,0,baseline,1,660.0,720.0,1.0,0.0,0.0,0,0,0.02109375,0,71,0,1.0,0.7571428571428571,1.0,0.8459821428571429,0.8894281505739723,0.8334082961082458,0.5708480477333069,0.6164669098488796,1,0.8689875523499734,0.6742719646205432,0.8261585776446851,0.4587240136448093,0.8689875523499734,0,1.1107289791107178,1.0,0.6696855880293345,-0.1421480311865883,1,1.0,0,902.0,0.0059975450858473,0.0067747407592833,0.0419825389981269,0.0352078005671501,0.0087840389460325,0.0031043305061757,0.0246739368885755,0.0210809279233217,5.852545738220215,181.2984771728516,3.038764476776123,0
S17,window11,11,0,baseline,1,720.0,780.0,1.0,0.0,0.0,0,0,0.021875,0,64,0,1.0,0.9047619047619048,1.0,0.9278273809523808,0.9285395153227374,0.5234839022159576,0.3603604435920715,0.4533611255862428,1,0.7527927029465944,0.4344795279582164,0.8268451605648018,0.7591041138411789,0.8268451605648018,0,0.4163313806056976,0.4163313806056976,0.7988334784410133,0.4181030452075476,1,1.0,0,873.0,0.0043794689700007,0.0054234396666288,0.037951435893774,0.0325279943645,0.0073034740053117,0.0023194495588541,0.0174860004335641,0.014108351431787,5.727836608886719,95.63755798339844,3.038764476776123,0
S17,window12,12,0,baseline,1,780.0,840.0,1.0,0.0,0.0,0,0,0.0229166666666666,0,67,0,1.0,0.8484848484848485,1.0,0.8908617424242424,0.9077451967609496,0.6395173668861389,0.5945205688476562,0.4017717561229807,1,0.8359657331159347,0.715100484391152,0.8319889111143005,0.6421959053766604,0.8359657331159347,0,1.075559139251709,1.0,0.7117174984222242,-0.1586389045427734,1,1.0,0,873.0,0.003206986002624,0.0059059392660856,0.0416405200958251,0.0357345826923847,0.0092104701325297,0.0015309602022171,0.0125601459294557,0.0106423189863562,5.28794002532959,87.78591918945312,3.038764476776123,0
S17,window13,13,0,baseline,1,840.0,900.0,1.0,0.0,0.0,0,0,0.0234375,0,65,0,0.984375,0.8125,0.984375,0.92431640625,0.9446810994019788,0.6120240092277527,0.369208812713623,0.4825429911412194,1,0.7982300361064496,0.3557147564924752,0.8443922266130756,0.7611489438051217,0.8443922266130756,0,0.8121451735496521,0.8121451735496521,0.7240648124656285,0.0176561036077808,1,1.0,0,900.0,0.004592852666974,0.0051769129931926,0.0372747704386711,0.0320978574454784,0.0065840873867273,0.0025537712499499,0.0188424121588468,0.0155346039682626,5.953975677490234,128.0008087158203,3.038764476776123,0
S17,window14,14,0,baseline,1,900.0,960.0,1.0,0.0,0.0,0,0,0.0231770833333333,0,70,0,0.9855072463768116,0.7101449275362319,0.9855072463768116,0.8657155797101449,0.8797913399100379,0.6676108539104462,0.5206760168075562,0.4809796769150599,1,0.7368014375693316,0.6389647368613726,0.7327536323020872,0.6608560738248218,0.7368014375693316,0,0.9049262404441832,0.9049262404441832,0.6546041982184481,-0.1079307644528304,1,1.0,0,907.0,0.0053955102339386,0.0062760398723185,0.0485968068242073,0.0423207655549049,0.0084989182651042,0.0025640167295932,0.021650256589055,0.0181197840720415,5.859106540679932,62.61156845092773,3.038764476776123,0
S17,window15,15,0,baseline,1,960.0,1020.0,1.0,0.0,0.0,0,0,0.0234375,0,69,0,1.0,0.8529411764705882,1.0,0.8736213235294118,0.8912746571386749,0.7043815851211548,0.2543195486068725,0.3178738926524231,1,0.5768035622679972,0.4097757731977974,0.6592589809263797,0.7093586654653284,0.7093586654653284,0,0.4515306353569031,0.4515306353569031,0.7634058041941474,0.4032657781492308,1,1.0,0,883.0,0.0058311820030212,0.0060267657972872,0.0366282314062118,0.0306014642119407,0.0074658570811152,0.0030842218548059,0.0254371482878923,0.0214220006018877,5.989365577697754,121.62547302246094,3.038764476776123,0
S17,window16,16,0,baseline,1,1020.0,1080.0,1.0,0.0,0.0,0,0,0.02578125,0,67,0,1.0,0.9848484848484848,1.0,0.8989109848484849,0.9702627092738956,0.5600461065769196,0.0262731611728668,0.030745179781136,0,0.0256034373823328,,-0.4033876454497955,0.0396256283099066,0.0396256283099066,0,0.0722775384783744,0.0722775384783744,0.8777904528737251,0.8057542109388749,0,1.0,1,886.0,0.0049642953090369,0.005018638446927,0.0303421095013618,0.0253234710544347,0.0059112319722771,0.0026322552002966,0.0245905611664056,0.0207558423280715,6.137237548828125,59.08712387084961,3.038764476776123,0
S17,window17,17,0,baseline,1,1080.0,1140.0,1.0,0.0,0.0,0,0,0.0213541666666666,0,70,0,1.0,0.9565217391304348,1.0,0.8596014492753623,0.935472522766728,0.5384883284568787,0.1096066087484359,0.2245961438249088,1,-0.2441399440615035,0.5853522976200237,0.5589532260531056,-0.0252710305117177,0.5853522976200237,0,0.1435547024011612,0.1435547024011612,0.8488949822420762,0.7118920321438709,1,1.0,0,871.0,0.0052762287668883,0.0056354869157075,0.0355610996484756,0.0299256108701229,0.0066929762251675,0.0030122334137558,0.0252359379082918,0.0203942060470581,6.091963768005371,52.57159805297852,3.038764476776123,0
S17,window18,18,0,baseline,1,1140.0,1200.0,1.0,0.0,0.0,0,0,0.0213541666666666,0,71,0,0.9714285714285714,0.7142857142857143,0.9714285714285714,0.8415178571428571,0.8830147186575248,0.6697807312011719,1.3477580547332764,0.5310057321521626,1,0.642406186686112,0.8407921018323127,0.7138174944548857,0.2605230037305266,0.8407921018323127,0,2.447181224822998,1.0,0.6449044155972574,-0.2032297089638972,1,1.0,0,920.0,0.0046043265610933,0.0059799617156386,0.0477169528603553,0.0417369902133941,0.0084783853963017,0.0020078502129763,0.0158910956233739,0.0131566375494003,5.77747917175293,36.00387191772461,3.038764476776123,0
S17,window19,19,0,baseline,1,1200.0,1260.0,1.0,0.0,0.0,0,0,0.0208333333333333,0,72,0,1.0,0.8450704225352113,1.0,0.8259242957746479,0.8272799703962127,0.7815266251564026,0.8597365617752075,0.3944762897342366,1,0.5955706987926562,0.7065927118197277,0.7947913691044373,0.5210754633294497,0.7947913691044373,0,1.5573182106018066,1.0,0.6862121601329484,-0.1442772243512828,1,1.0,0,925.0,0.0031250356696546,0.0052923848852515,0.0361170619726181,0.030824676156044,0.008019408211112,0.001580717973411,0.0114007238298654,0.0094824535772204,5.357165813446045,88.7849349975586,3.038764476776123,0
S17,window21,21,1,stress,2,3600.0,3660.0,1.0,0.0,0.0,0,0,0.02265625,0,91,0,0.9777777777777776,0.5555555555555556,0.9777777777777776,0.659375,0.6403901936662748,0.8318518996238708,3.00685977935791,0.8832725377800938,1,0.7992687063759808,0.7039388030299303,0.8819965064372799,0.783160303549268,0.8819965064372799,0,4.083220481872559,1.0,0.5098948358776603,-0.2697172544552413,1,1.0,0,976.0,0.0096967034041881,0.008988101966679,0.052684623748064,0.0436965227127075,0.0106634926050901,0.0048400405794382,0.0371768809854984,0.0308181941509246,6.252495765686035,19.47756004333496,3.038764476776123,0
S17,window25,25,1,stress,2,3840.0,3900.0,1.0,0.0,0.0,0,0,0.0213541666666666,0,92,0,1.0,0.7252747252747253,1.0,0.646978021978022,0.8523455646342678,0.9390890300273896,0.671541154384613,0.5403856175091193,1,0.3289214746341396,0.6470162889910037,-0.622197662484161,-0.2746927057750452,0.6470162889910037,0,1.27403724193573,1.0,0.6458135595001705,-0.1345589337521681,1,1.0,0,953.0,0.0058894036337733,0.0075466483831405,0.053861167281866,0.0463145188987255,0.0104967895895242,0.0030400529503822,0.020661735907197,0.01683328486979,5.774049758911133,106.66789245605467,3.038764476776123,0
S17,window26,26,1,stress,2,3900.0,3960.0,1.0,0.0,0.0,0,0,0.0208333333333333,0,90,0,0.9887640449438202,0.6853932584269663,0.9887640449438202,0.6664325842696629,0.8371708933153673,0.9175506234169006,1.3869454860687256,0.6362688900468995,1,0.6410432736268258,0.6351366759363326,0.6465572629700199,0.4354940824815964,0.6465572629700199,0,2.542254447937012,1.0,0.6230613803541607,-0.1579488343000791,1,1.0,0,942.0,0.0036440957337617,0.0066978777758777,0.0461332984268665,0.0394354201853275,0.0103317303583025,0.0017660115845501,0.0119126914069056,0.0096690552309155,5.454423427581787,71.24193572998047,3.038764476776123,0
S17,window27,27,1,stress,2,3960.0,4020.0,1.0,0.0,0.0,0,0,0.02109375,0,104,0,1.0,0.7087378640776699,1.0,0.5776699029126213,0.725162210338759,0.8962061405181885,1.6215468645095823,0.7248566961959354,1,0.6907593091855287,0.5560469847843387,0.8093517101787825,0.4517994269236932,0.8093517101787825,0,2.7021210193634038,1.0,0.6010438087326958,-0.1820365530624621,1,1.0,0,970.0,0.0069254352711141,0.0087703540921211,0.0552557744085788,0.0464854203164577,0.0118388840928673,0.0035383119247853,0.0223718844354152,0.0179415773600339,5.930196285247803,100.3466339111328,3.038764476776123,0
S17,window28,28,1,stress,2,4020.0,4080.0,1.0,0.0,0.0,0,0,0.02265625,0,104,0,1.0,0.6990291262135923,1.0,0.5747876213592233,0.7252003696865661,0.960758626461029,1.3462939262390137,0.7165190203230849,1,0.7699231728628673,0.7632991874646419,0.7670552370387075,-0.3113257554921229,0.7699231728628673,0,2.071782112121582,1.0,0.5971717613914068,-0.1688015130990234,1,1.0,0,944.0,0.0068108951672911,0.0076596015132963,0.0522707290947437,0.0446111261844635,0.0102918203920125,0.0030354000627994,0.0203216709196567,0.0163614749908447,5.999197006225586,20.093360900878903,3.038764476776123,0
S17,window29,29,1,stress,2,4080.0,4140.0,1.0,0.0,0.0,0,0,0.02109375,0,121,0,1.0,0.8666666666666667,1.0,0.4940104166666667,0.9240271909061408,0.9873393177986144,0.5713101029396057,0.648775403856175,1,-0.0609781644151169,0.1323586414711496,0.1659738306283878,-0.6323778949039178,0.1659738306283878,0,1.017737865447998,1.0,0.723874823938509,-0.062158372823811,1,1.0,0,933.0,0.0062771504744887,0.0078602349385619,0.0478543825447559,0.0399941466748714,0.0107152936980128,0.0032650288194417,0.0221640653908252,0.0180410649627447,5.797763347625732,69.93018341064453,3.038764476776123,0
S17,window30,30,1,stress,2,4140.0,4200.0,1.0,0.0,0.0,0,0,0.0229166666666666,0,110,0,1.0,0.7706422018348624,1.0,0.5470183486238532,0.8018296701988605,0.9604045450687408,0.7242629528045654,0.6800416883793643,1,0.7089377476032,0.366328820335564,0.6764105261662717,-0.5579148281561175,0.7089377476032,0,1.2130460739135742,1.0,0.6488057817936032,-0.1282487856326408,1,1.0,0,943.0,0.005946023389697,0.0069175562821328,0.0474432967603206,0.0405257418751716,0.0090747587382793,0.0029511116445064,0.0204602517187595,0.0168090350925922,6.005234718322754,28.17173957824707,3.038764476776123,0
S17,window31,31,2,meditation,4,5280.0,5340.0,1.0,0.0,0.0,0,0,0.0216145833333333,0,66,0,0.9846153846153848,0.7692307692307693,0.9846153846153848,0.909375,0.8767762970091227,0.8203489184379578,0.4190133810043335,0.5653986451276707,1,0.6217842160186469,0.5451639984692815,0.588806543296232,-0.3858252882423905,0.6217842160186469,0,0.4735527634620666,0.4735527634620666,0.7202929973719149,0.3784208480920112,1,1.0,0,885.0,0.0053189052268862,0.0067652915604412,0.0430521927773952,0.0362868979573249,0.009405612014234,0.0025265123695135,0.0197034087032079,0.0166738145053386,5.724701881408691,88.0904541015625,3.038764476776123,0
S17,window32,32,2,meditation,4,5340.0,5400.0,1.0,0.0,0.0,0,0,0.02265625,0,63,0,1.0,0.7258064516129032,1.0,0.9480846774193548,0.8760191214681681,0.7201516032218933,0.9338262677192688,0.4955706096925482,1,0.7451681832643544,0.8125519355345526,0.8140267465726393,0.5503214070282428,0.8140267465726393,0,1.500986933708191,1.0,0.6531283170856118,-0.1832153833436136,1,1.0,0,877.0,0.0030498909763991,0.0064584887586534,0.05307187885046,0.0466133914887905,0.0102668488398194,0.0014199148863554,0.010552043095231,0.008648588322103,5.215835094451904,181.5051727294922,3.038764476776123,0
S17,window33,33,2,meditation,4,5400.0,5460.0,1.0,0.0,0.0,0,0,0.0221354166666666,0,64,0,1.0,0.6984126984126984,1.0,0.9236111111111112,0.865574648182449,0.8234385550022125,0.536550760269165,0.5138092756644086,1,0.70001153020166,0.5511049870922894,0.6285788953045351,0.3114297534095708,0.70001153020166,0,0.8018245697021484,0.8018245697021484,0.6588550168495991,0.0299525406178264,1,1.0,0,884.0,0.004102885723114,0.0084780771285295,0.054683394730091,0.0462053194642066,0.0135153075680136,0.0019348347559571,0.0133553482592105,0.0110019147396087,5.182051181793213,151.17507934570312,3.038764476776123,0
S17,window34,34,2,meditation,4,5460.0,5520.0,1.0,0.0,0.0,0,0,0.0216145833333333,0,61,0,0.9833333333333332,0.7666666666666667,0.9833333333333332,0.9747395833333332,0.8365930796497206,0.9006614089012146,0.5909066200256348,0.559666492965086,1,0.1963016587135692,0.5496083916584602,0.5238293761032047,-0.4480431867899052,0.5496083916584602,0,1.1232671737670898,1.0,0.6543112572282496,-0.1390197111955995,1,1.0,0,920.0,0.0036589284427464,0.0060579152777791,0.048973973840475,0.0429160594940185,0.0090303346514701,0.0018664388917386,0.0146363358944654,0.0121509423479437,5.4982686042785645,113.59483337402344,3.038764476776123,0
S17,window35,35,2,meditation,4,5520.0,5580.0,1.0,0.0,0.0,0,0,0.0236979166666666,0,61,0,1.0,0.8666666666666667,1.0,0.9776041666666668,0.8989273979363948,0.6722832918167114,0.1461629420518875,0.2866076081292339,1,0.4743597103920786,0.2236545605207631,-0.2211382387478408,-0.2087300482481164,0.4743597103920786,0,0.1715778112411499,0.1715778112411499,0.79918710492347,0.6812248611971267,1,1.0,0,888.0,0.0065140123479068,0.0060881376266479,0.0366372317075729,0.0305490959435701,0.0072726174257695,0.0031155450269579,0.0266077779233455,0.02216662093997,6.1255388259887695,43.64424133300781,3.038764476776123,0
