subject,window,window_index,status,status_name,label_major,t_start_sec,t_end_sec,major_ratio,EDA_mean,EDA_std,EDA_min,EDA_max,EDA_median,EDA_iqr,EDA_skew,EDA_kurtosis,EDA_slope,EDA_range,EDA_diff_mean,EDA_diff_std,EDA_num_peaks,EDA_peak_mean,EDA_peak_max
S10,window1,1,0,baseline,1,120.0,180.0,1.0,0.38308075070381165,0.013742437586188316,0.36840200424194336,0.43108201026916504,0.3786360025405884,0.0038380026817321777,2.354966878890991,4.335737228393555,-0.000463950954124506,0.06268000602722168,0.0022159339860081673,0.00322509091347456,38,0.3846612870693207,0.4285230040550232
S10,window2,2,0,baseline,1,180.0,240.0,1.0,0.37888088822364807,0.0039038124959915876,0.3696810007095337,0.4016610085964203,0.3786360025405884,0.0025590062141418457,2.097054958343506,9.26806926727295,-7.748659923611929e-05,0.0319800078868866,0.002103442093357444,0.0033476788084954023,43,0.3806585669517517,0.4016610085964203
S10,window3,3,0,baseline,1,240.0,300.0,1.0,0.38117262721061707,0.007077036891132593,0.3696810007095337,0.41701099276542664,0.3786360025405884,0.008955001831054688,2.007734537124634,5.6496076583862305,0.0002760496433870783,0.047329992055892944,0.0024353470653295517,0.004160973243415356,42,0.3839351236820221,0.41701099276542664
S10,window4,4,0,baseline,1,300.0,360.0,1.0,0.3905639946460724,0.005376928951591253,0.37607699632644653,0.40805700421333313,0.39014801383018494,0.008954018354415894,0.11830335110425949,-0.705939531326294,-0.0002178921939333313,0.0319800078868866,0.0021676577161997557,0.0036470878403633833,43,0.3928256034851074,0.40805700421333313
S10,window5,5,0,baseline,1,360.0,420.0,1.0,0.38005340099334717,0.007115058600902557,0.36456501483917236,0.4477109909057617,0.3799149990081787,0.007674992084503174,3.674337148666382,33.27263641357422,-0.00021515096841407799,0.08314597606658936,0.0029276639688760042,0.007933341898024082,44,0.38369429111480713,0.4477109909057617
S10,window6,6,0,baseline,1,420.0,480.0,1.0,0.3755175769329071,0.0034432990942150354,0.367123007774353,0.3939859867095947,0.37607699632644653,0.003836989402770996,1.1053094863891602,5.437854766845703,4.76119274020913e-05,0.0268629789352417,0.0020070397295057774,0.0033086237963289022,42,0.3779655396938324,0.3939859867095947
S10,window7,7,0,baseline,1,480.0,540.0,1.0,0.396336168050766,0.008502185344696045,0.37351900339126587,0.40933600068092346,0.40038201212882996,0.012791991233825684,-0.6747255921363831,-0.8260171413421631,-6.56410254679469e-05,0.03581699728965759,0.0024994707200676203,0.004030611831694841,40,0.39942222833633423,0.40933600068092346
S10,window8,8,0,baseline,1,540.0,600.0,1.0,0.39685317873954773,0.002895795041695237,0.3875899910926819,0.40421900153160095,0.3965440094470978,0.003836989402770996,-0.48375070095062256,-0.09621715545654297,5.151818483831659e-05,0.016629010438919067,0.0020284780766814947,0.0029265531338751316,37,0.3988949656486511,0.40421900153160095
S10,window9,9,0,baseline,1,600.0,660.0,1.0,0.4026627242565155,0.006220072973519564,0.37735599279403687,0.4336400032043457,0.40421900153160095,0.007674992084503174,-0.8811543583869934,4.754616737365723,0.00010425982002326241,0.05628401041030884,0.00253699510358274,0.004683561623096466,38,0.4061715006828308,0.4336400032043457
S10,window10,10,0,baseline,1,660.0,720.0,1.0,0.41254979372024536,0.00857781432569027,0.3850319981575012,0.4336400032043457,0.41445299983024597,0.01151198148727417,-0.9325931668281555,0.492891788482666,0.00038703468107146796,0.04860800504684448,0.0026868279092013836,0.00505437096580863,38,0.4156307280063629,0.4336400032043457
S10,window11,11,0,baseline,1,720.0,780.0,1.0,0.4237746000289917,0.010249803774058819,0.4029400050640106,0.4912030100822449,0.42212799191474915,0.012792021036148071,2.083977460861206,10.355591773986816,0.0002380528844423813,0.08826300501823425,0.003275600727647543,0.006888900883495808,41,0.4272443652153015,0.4912030100822449
S10,window12,12,0,baseline,1,780.0,840.0,1.0,0.4220743775367737,0.007163938134908676,0.4067769944667816,0.48608601093292236,0.42212799191474915,0.0038380026817321777,4.7902092933654785,36.11615753173828,7.304595318491582e-05,0.07930901646614075,0.003388026962056756,0.007438066881150007,41,0.42683881521224976,0.48608601093292236
S10,window13,13,0,baseline,1,840.0,900.0,1.0,0.42376917600631714,0.004428647458553314,0.4054979979991913,0.4425939917564392,0.4246860146522522,0.003837019205093384,-0.27724847197532654,3.2870736122131348,-2.6020020705398767e-06,0.037095993757247925,0.002574363723397255,0.003941277973353863,42,0.4265132546424866,0.4425939917564392
S10,window14,14,0,baseline,1,900.0,960.0,1.0,0.4185832440853119,0.017578883096575737,0.3824729919433594,0.44515299797058105,0.4285230040550232,0.03229975700378418,-0.9536706209182739,-0.8675022125244141,-0.0007703009784903604,0.06268000602722168,0.002547766547650099,0.003965842071920633,41,0.4196941554546356,0.44515299797058105
S10,window15,15,0,baseline,1,960.0,1020.0,1.0,0.3980472683906555,0.014907154254615307,0.3799149990081787,0.44003599882125854,0.3875899910926819,0.028140991926193237,0.41503897309303284,-1.4435038566589355,0.0006772005885431181,0.060120999813079834,0.002424631267786026,0.003676585154607892,45,0.40046703815460205,0.44003599882125854
S10,window16,16,0,baseline,1,1020.0,1080.0,1.0,0.4130667448043823,0.016172921285033226,0.3888689875602722,0.49887800216674805,0.4118939936161041,0.010232985019683838,2.605311155319214,8.59727668762207,-0.0002644313156514749,0.11000901460647583,0.0034468199592083693,0.008516175672411919,40,0.41630735993385315,0.49887800216674805
S10,window17,17,0,baseline,1,1080.0,1140.0,1.0,0.3923707902431488,0.00701818848028779,0.37735599279403687,0.4157319962978363,0.39014801383018494,0.0076750218868255615,1.3427734375,1.9510626792907715,-3.695528799756765e-06,0.03837600350379944,0.0020017318893224,0.003391244215890765,42,0.39438170194625854,0.4157319962978363
S10,window18,18,0,baseline,1,1140.0,1200.0,1.0,0.4238758683204651,0.005058902781456709,0.4067769944667816,0.43619900941848755,0.4234069883823395,0.006395995616912842,-0.2136133462190628,0.014723777770996094,0.0002025577394963819,0.029422014951705933,0.0023335127625614405,0.003407255746424198,42,0.42639151215553284,0.43619900941848755
S10,window19,19,0,baseline,1,1200.0,1260.0,1.0,0.43623587489128113,0.006937337573617697,0.4234069883823395,0.45026901364326477,0.43619900941848755,0.01151198148727417,0.1562466323375702,-1.077475666999817,0.00036547725305252757,0.026862025260925293,0.0020659700967371464,0.002873163903132081,42,0.4387568533420563,0.45026901364326477
S10,window20,20,1,stress,2,3240.0,3300.0,1.0,2.1056342124938965,0.07468972355127335,1.9649250507354736,2.5495080947875977,2.1069140434265137,0.1061711311340332,1.200023889541626,5.399580955505371,-0.0015567474221270061,0.584583044052124,0.0078356321901083,0.01642765663564205,26,2.1081433296203613,2.2207601070404053
S10,window21,21,1,stress,2,3300.0,3360.0,1.0,2.748288869857788,0.36377274990081787,2.144010066986084,3.459306001663208,2.874722957611084,0.6904194951057434,-0.18116533756256104,-1.1545205116271973,0.01479791350599714,1.315295934677124,0.018418176099658012,0.026990646496415138,26,2.8205363750457764,3.459306001663208
S10,window22,22,1,stress,2,3360.0,3420.0,1.0,3.0855021476745605,0.13746526837348938,2.9015860557556152,3.5075409412384033,3.066598892211914,0.1730482578277588,0.9361396431922913,0.3882119655609131,0.000560524344483575,0.6059548854827881,0.01140394527465105,0.016971053555607796,19,3.0821120738983154,3.5075409412384033
S10,window23,23,1,stress,2,3420.0,3480.0,1.0,2.9840781688690186,0.08168049901723862,2.8580939769744873,3.3122010231018066,2.974498987197876,0.0937390923500061,1.659142017364502,3.8280630111694336,-0.0029227487680682325,0.45410704612731934,0.008243942633271217,0.013612229377031326,30,2.9748148918151855,3.3122010231018066
S10,window24,24,1,stress,2,3480.0,3540.0,1.0,2.9687108993530273,0.06809607148170471,2.789017915725708,3.1369540691375732,2.966184139251709,0.08826321363449097,0.2022068053483963,-0.047473907470703125,0.001205972922001625,0.34793615341186523,0.011079090647399426,0.015407306142151356,22,2.9904885292053223,3.1369540691375732
S10,window25,25,1,stress,2,3540.0,3600.0,1.0,2.9743282794952393,0.05681281164288521,2.836348056793213,3.1599791049957275,2.9578700065612793,0.07866936922073364,0.7178711891174316,0.41892242431640625,0.0001822410262055821,0.32363104820251465,0.008215601556003094,0.014069491997361183,34,2.972053289413452,3.1599791049957275
S10,window26,26,1,stress,2,3600.0,3660.0,1.0,2.780144214630127,0.09919489175081253,2.571558952331543,2.9374029636383057,2.7902979850769043,0.18164300918579102,-0.2163584679365158,-1.2099522352218628,-0.00548324007986236,0.3658440113067627,0.006524343509227037,0.00910020712763071,40,2.7862043380737305,2.9374029636383057
S10,window27,27,1,stress,2,3660.0,3720.0,1.0,2.4248046875,0.0948840007185936,2.2412269115448,2.5945839881896973,2.431823968887329,0.1659577488899231,-0.0779549777507782,-1.108934760093689,-0.005459310313095161,0.35335707664489746,0.003798787947744131,0.004992292728275061,36,2.429722785949707,2.5945839881896973
S10,window28,28,1,stress,2,3720.0,3780.0,1.0,2.142085552215576,0.08055256307125092,1.9969040155410767,2.269368886947632,2.142090320587158,0.15637874603271484,-0.03064848855137825,-1.4059727191925049,-0.004587971318912402,0.2724648714065552,0.0039338660426437855,0.005393741652369499,36,2.1471362113952637,2.269368886947632
S10,window29,29,1,stress,2,3780.0,3840.0,1.0,1.8918098211288452,0.06253878772258759,1.7786860466003418,2.005858898162842,1.8899739980697632,0.1090497076511383,0.07001686841249466,-1.2179759740829468,-0.0035996343311777996,0.2271728515625,0.0030635700095444918,0.004139733500778675,41,1.890890121459961,2.0032999515533447
S10,window30,30,1,stress,2,3840.0,3900.0,1.0,1.7195559740066528,0.03784101828932762,1.6405349969863892,1.7863609790802002,1.7211229801177979,0.06139993667602539,-0.2424439936876297,-1.047311782836914,-0.002057996911160975,0.14582598209381104,0.0036555747501552105,0.005365622229874134,35,1.7218539714813232,1.7863609790802002
S10,window31,31,2,meditation,4,4920.0,4980.0,1.0,1.0487414598464966,0.01069021038711071,1.0249539613723755,1.0748419761657715,1.0505379438400269,0.016630053520202637,-0.13581879436969757,-0.6222796440124512,-0.0005866722364463307,0.049888014793395996,0.002194390632212162,0.0030468637123703957,40,1.0498660802841187,1.0748419761657715
S10,window32,32,2,meditation,4,4980.0,5040.0,1.0,1.002168893814087,0.015536085702478886,0.9712290167808533,1.0326290130615234,0.998091995716095,0.02430504560470581,0.2995668947696686,-1.0255082845687866,-0.0008799390136025285,0.061399996280670166,0.0021302117966115475,0.002852378413081169,40,1.005126953125,1.0326290130615234
S10,window33,33,2,meditation,4,5040.0,5100.0,1.0,0.9546101689338684,0.01195474062114954,0.9302949905395508,0.9789040088653564,0.9545999765396118,0.020467042922973633,0.08536114543676376,-1.1029348373413086,-0.0006804658434482515,0.048609018325805664,0.00208202563226223,0.0027731836307793856,47,0.9557697772979736,0.9789040088653564
S10,window34,34,2,meditation,4,5100.0,5160.0,1.0,0.9215862154960632,0.0076658111065626144,0.9021530151367188,0.9366909861564636,0.9226199984550476,0.012791991233825684,-0.13205017149448395,-0.9976682662963867,-0.0004226913048402819,0.03453797101974487,0.0021194410510361195,0.0027902189176529646,43,0.9233936667442322,0.9366909861564636
S10,window35,35,2,meditation,4,5160.0,5220.0,1.0,0.8945956826210022,0.007034492678940296,0.8804069757461548,0.9098280072212219,0.8944780230522156,0.012791037559509277,0.19975629448890686,-1.1600438356399536,-0.00038869457538016374,0.02942103147506714,0.0020392409060150385,0.0026677665300667286,45,0.8964683413505554,0.9098280072212219
S10,window36,36,2,meditation,4,5220.0,5280.0,1.0,0.8765485882759094,0.0064604757353663445,0.8612200021743774,0.8880829811096191,0.8765699863433838,0.011512994766235352,-0.05986941605806351,-0.9666843414306641,-0.0003566840978816963,0.0268629789352417,0.0016591486055403948,0.0025506988167762756,37,0.8781255483627319,0.8880829811096191
S11,window1,1,0,baseline,1,120.0,180.0,1.0,4.754117488861084,0.07055582851171494,4.581839084625244,4.931075096130371,4.741106033325195,0.1176910400390625,0.2573601007461548,-0.7996058464050293,-0.0031358047380975747,0.34923601150512695,0.008724589832127094,0.017638368532061577,37,4.76760721206665,4.931075096130371
S11,window2,2,0,baseline,1,180.0,240.0,1.0,4.531143665313721,0.07534056156873703,4.404563903808594,4.670107841491699,4.519155979156494,0.12376749515533447,0.1473969668149948,-1.126786470413208,-0.0043259974624898145,0.26554393768310547,0.005066683981567621,0.006928838789463043,43,4.532682418823242,4.670107841491699
S11,window3,3,0,baseline,1,240.0,300.0,1.0,4.229989051818848,0.12621662020683289,4.015672206878662,4.408401012420654,4.260008811950684,0.24849486351013184,-0.3072608709335327,-1.4039185047149658,-0.007153910017151844,0.3927288055419922,0.005502365529537201,0.007696984335780144,37,4.236808776855469,4.408401012420654
S11,window4,4,0,baseline,1,300.0,360.0,1.0,3.9678139686584473,0.07730096578598022,3.8110809326171875,4.0937957763671875,3.9818615913391113,0.0722777247428894,-0.6000856757164001,-0.6499247550964355,-0.0038982780524559643,0.28271484375,0.006850887089967728,0.013193393126130104,40,3.96858286857605,4.0937957763671875
S11,window5,5,0,baseline,1,360.0,420.0,1.0,3.3103129863739014,0.28512054681777954,2.97302508354187,3.8187570571899414,3.2173619270324707,0.597557008266449,0.7299605011940002,-1.0021733045578003,-0.015429849240839498,0.8457319736480713,0.007906325161457062,0.022120820358395576,33,3.3628194332122803,3.8187570571899414
S11,window6,6,0,baseline,1,420.0,480.0,1.0,3.04837703704834,0.11454034596681595,2.86210298538208,3.279139995574951,3.082134962081909,0.19604498147964478,-0.09603574126958847,-1.2342784404754639,0.005406304516662561,0.4170370101928711,0.00827123038470745,0.01729411818087101,36,3.055163860321045,3.279139995574951
S11,window7,7,0,baseline,1,480.0,540.0,1.0,3.1484320163726807,0.04110616073012352,2.975956916809082,3.2254109382629395,3.1588900089263916,0.05021071434020996,-1.0161796808242798,1.4016971588134766,-0.0005986776759068715,0.24945402145385742,0.01126705389469862,0.019822414964437485,35,3.1673693656921387,3.2254109382629395
S11,window8,8,0,baseline,1,540.0,600.0,1.0,3.1112005710601807,0.023889586329460144,3.022010087966919,3.1512138843536377,3.1115570068359375,0.03357964754104614,-0.9664974212646484,1.2002248764038086,-0.0010324385470860972,0.12920379638671875,0.006476501002907753,0.011379132978618145,43,3.1171207427978516,3.1512138843536377
S11,window9,9,0,baseline,1,600.0,660.0,1.0,3.072284460067749,0.014163143932819366,3.041198968887329,3.103882074356079,3.0719010829925537,0.022067129611968994,0.034226734191179276,-0.9086403846740723,-0.0007907422740156821,0.06268310546875,0.0035112074110656977,0.004892390687018633,45,3.0759661197662354,3.103882074356079
S11,window10,10,0,baseline,1,660.0,720.0,1.0,2.957965612411499,0.1288345754146576,2.2298479080200195,3.0501530170440674,2.9823532104492188,0.08834528923034668,-3.530848979949951,14.623514175415039,-0.0031851327126012716,0.8203051090240479,0.011858424171805382,0.03544698283076286,38,2.9905691146850586,3.0501530170440674
S11,window11,11,0,baseline,1,720.0,780.0,1.0,2.858180522918701,0.04737367853522301,2.688124895095825,3.0284059047698975,2.8569869995117188,0.06780004501342773,0.41512757539749146,1.6534976959228516,-0.0017103512085680983,0.34028100967407227,0.008307079784572124,0.017901010811328888,41,2.864349842071533,3.0284059047698975
S11,window12,12,0,baseline,1,780.0,840.0,1.0,2.7785842418670654,0.022567251697182655,2.736737012863159,2.86210298538208,2.7776730060577393,0.030701875686645508,1.0070587396621704,1.9324512481689453,-0.0006412540091170553,0.1253659725189209,0.008638985455036163,0.01573246531188488,44,2.7899420261383057,2.86210298538208
S11,window13,13,0,baseline,1,840.0,900.0,1.0,2.7403829097747803,0.03558975085616112,2.626720905303955,2.8083748817443848,2.741853952407837,0.036138832569122314,-0.9995043873786926,1.386359691619873,-0.0005347976502607478,0.1816539764404297,0.013070842251181602,0.02060108259320259,41,2.758608818054199,2.8083748817443848
S11,window14,14,0,baseline,1,900.0,960.0,1.0,2.657172679901123,0.03456505760550499,2.541011095046997,2.7469708919525146,2.6459100246429443,0.04605293273925781,0.21400506794452667,1.1289119720458984,-0.0014420021656298535,0.20595979690551758,0.0065835886634886265,0.011923118494451046,43,2.6630163192749023,2.7469708919525146
S11,window15,15,0,baseline,1,960.0,1020.0,1.0,2.469818115234375,0.06474287062883377,2.371845006942749,2.568850040435791,2.4652299880981445,0.13592076301574707,0.13921399414539337,-1.3944118022918701,0.0010462897554756412,0.197005033493042,0.004826682154089212,0.009704629890620708,42,2.480313301086426,2.568850040435791
S11,window16,16,0,baseline,1,1020.0,1080.0,1.0,2.472858190536499,0.1246313825249672,1.9791150093078613,2.585479974746704,2.504887104034424,0.029742717742919922,-2.7208492755889893,6.434553146362305,0.0008754344449614199,0.6063649654388428,0.012610514648258686,0.03725622966885567,36,2.512669324874878,2.585479974746704
S11,window17,17,0,baseline,1,1080.0,1140.0,1.0,2.477426052093506,0.025154143571853638,2.421736001968384,2.511284112930298,2.481861114501953,0.042534828186035156,-0.5028237104415894,-1.054046392440796,-0.0013545771357429206,0.08954811096191406,0.003291854402050376,0.005890484433621168,42,2.4814953804016113,2.511284112930298
S11,window18,18,0,baseline,1,1140.0,1200.0,1.0,2.395505666732788,0.01997269131243229,2.3577730655670166,2.442203998565674,2.396151065826416,0.026864051818847656,0.07342395931482315,-0.40156054496765137,-0.0008867101923132649,0.08443093299865723,0.0037038775626569986,0.0062784492038190365,41,2.399583101272583,2.442203998565674
S11,window19,19,0,baseline,1,1200.0,1260.0,1.0,2.3502843379974365,0.018729522824287415,2.2950899600982666,2.396151065826416,2.3488190174102783,0.019189119338989258,-0.012755341827869415,0.5300419330596924,-0.0001669262342956728,0.10106110572814941,0.008039486594498158,0.014012487605214119,36,2.3628549575805664,2.396151065826416
S11,window20,20,1,stress,2,1920.0,1980.0,1.0,3.0884084701538086,0.08295446634292603,2.869779109954834,3.363569974899292,3.0802159309387207,0.08315086364746094,0.11553043872117996,0.9489712715148926,-0.0011124411139066888,0.493790864944458,0.019975632429122925,0.029746955260634422,33,3.1191556453704834,3.363569974899292
S11,window21,21,1,stress,2,1980.0,2040.0,1.0,3.0565285682678223,0.08821365982294083,2.77895188331604,3.210059881210327,3.0789365768432617,0.08602923154830933,-1.1432338953018188,0.852790355682373,0.00111002736907963,0.4311079978942871,0.02492130920290947,0.04369956627488136,31,3.1098241806030273,3.210059881210327
S11,window22,22,1,stress,2,2040.0,2100.0,1.0,3.0754878520965576,0.08412545174360275,2.8429150581359863,3.238204002380371,3.102602958679199,0.11673134565353394,-0.9861785769462585,0.13773679733276367,-0.0007502577950940742,0.39528894424438477,0.03275737911462784,0.060444578528404236,34,3.1245758533477783,3.238204002380371
S11,window23,23,1,stress,2,2100.0,2160.0,1.0,3.0663199424743652,0.142126202583313,2.561479091644287,3.3686869144439697,3.066783905029297,0.194766104221344,-0.764805257320404,0.48216915130615234,-0.0009558464860366895,0.8072078227996826,0.03858628869056702,0.07328000664710999,32,3.127108573913574,3.3686869144439697
S11,window24,24,1,stress,2,2160.0,2220.0,1.0,2.926892042160034,0.20668308436870575,2.6599819660186768,3.261229991912842,2.908156394958496,0.4272702932357788,0.09702704846858978,-1.7262228727340698,0.0007464910104466096,0.601248025894165,0.02568671479821205,0.05732869356870651,31,2.978721857070923,3.261229991912842
S11,window25,25,1,stress,2,2220.0,2280.0,1.0,2.989192008972168,0.1031341478228569,2.71882700920105,3.234365940093994,2.9599666595458984,0.17333847284317017,0.29586371779441833,-0.9344995021820068,0.002101451480249367,0.5155389308929443,0.01164174359291792,0.03557537868618965,28,3.0052883625030518,3.234365940093994
S11,window26,26,1,stress,2,2280.0,2340.0,1.0,3.1349899768829346,0.10386224836111069,2.8748960494995117,3.5231029987335205,3.126909017562866,0.1387985348701477,0.933314859867096,1.6102843284606934,0.004011141323985739,0.6482069492340088,0.01156524010002613,0.022972384467720985,30,3.1537177562713623,3.5231029987335205
S11,window27,27,1,stress,2,2340.0,2400.0,1.0,3.482011318206787,0.12735868990421295,3.3094680309295654,4.0285539627075195,3.4591403007507324,0.11673170328140259,1.9391465187072754,5.104010581970215,0.005046789984617838,0.7190859317779541,0.015180339105427265,0.024046016857028008,25,3.5009069442749023,4.0285539627075195
S11,window28,28,1,stress,2,2400.0,2460.0,1.0,3.8414504528045654,0.2551533877849579,3.5334839820861816,4.735889911651611,3.788054943084717,0.25169241428375244,1.334315299987793,1.7597274780273438,0.011597211727796073,1.2024059295654297,0.02072957158088684,0.03395044431090355,23,3.8625741004943848,4.735889911651611
S11,window29,29,1,stress,2,2460.0,2520.0,1.0,4.408384323120117,0.22643856704235077,3.914700984954834,4.879166126251221,4.432067394256592,0.37833893299102783,-0.06241589039564133,-0.7896919250488281,0.009076089539373326,0.9644651412963867,0.025509681552648544,0.03845509514212608,19,4.50502872467041,4.879166126251221
S11,window30,30,1,stress,2,2520.0,2580.0,1.0,4.833156108856201,0.1179087683558464,4.591334819793701,4.993758201599121,4.836311340332031,0.19038772583007812,-0.4174753427505493,-1.048072338104248,0.006171733959385228,0.4024233818054199,0.00843863096088171,0.012657789513468742,29,4.829290866851807,4.993758201599121
S11,window31,31,2,meditation,4,4740.0,4800.0,1.0,2.5033576488494873,0.020771218463778496,2.4639511108398438,2.547102928161621,2.502329111099243,0.0319819450378418,0.24086952209472656,-0.9813902378082275,-0.0011705058186304161,0.08315181732177734,0.003382796421647072,0.004547314252704382,43,2.5053038597106934,2.545823097229004
S11,window32,32,2,meditation,4,4800.0,4860.0,1.0,2.4524433612823486,0.014816886745393276,2.419178009033203,2.478023052215576,2.4524381160736084,0.026864051818847656,-0.1447223573923111,-1.2254570722579956,-0.0008272990718641739,0.05884504318237305,0.0033453258220106363,0.004591545555740595,46,2.454301595687866,2.478023052215576
S11,window33,33,2,meditation,4,4860.0,4920.0,1.0,2.406374216079712,0.011470516212284565,2.3820788860321045,2.429410934448242,2.4063849449157715,0.017910003662109375,0.1788778454065323,-0.9393420219421387,-0.0006354735475830145,0.047332048416137695,0.003302468452602625,0.004127822816371918,47,2.4091885089874268,2.429410934448242
S11,window34,34,2,meditation,4,4920.0,4980.0,1.0,2.3702194690704346,0.00992874801158905,2.3283510208129883,2.392313003540039,2.370565891265869,0.014071941375732422,-0.06399085372686386,0.24477362632751465,-0.0002880254804526361,0.06396198272705078,0.0038431109860539436,0.0063758292235434055,42,2.373337507247925,2.392313003540039
S11,window35,35,2,meditation,4,4980.0,5040.0,1.0,2.338963031768799,0.013528257608413696,2.3117198944091797,2.3654489517211914,2.3385848999023438,0.02302694320678711,0.13590863347053528,-1.157525658607483,-0.0007599847561249562,0.05372905731201172,0.0027458188124001026,0.003592074615880847,45,2.3413991928100586,2.3654489517211914
S13,window1,1,0,baseline,1,120.0,180.0,1.0,8.109145164489746,0.11182624101638794,7.508468151092529,8.291369438171387,8.126985549926758,0.13624048233032227,-1.9184839725494385,6.560047149658203,-0.0016784401191941088,0.7829012870788574,0.030402304604649544,0.06944599002599716,43,8.144225120544434,8.291369438171387
S13,window2,2,0,baseline,1,180.0,240.0,1.0,7.980159282684326,0.08805836737155914,7.818047046661377,8.281135559082031,7.963881015777588,0.0981825590133667,1.0913723707199097,1.5669317245483398,-0.0010539751122893204,0.4630885124206543,0.017079802230000496,0.029522482305765152,40,7.984860420227051,8.281135559082031
S13,window3,3,0,baseline,1,240.0,300.0,1.0,7.652620315551758,0.17058023810386658,7.241454124450684,7.943412780761719,7.65622091293335,0.20915746688842773,-0.44091254472732544,-0.24962139129638672,-0.009316661060306557,0.7019586563110352,0.01484394446015358,0.02401403710246086,40,7.665022373199463,7.9357380867004395
S13,window4,4,0,baseline,1,300.0,360.0,1.0,6.899343967437744,0.23303692042827606,6.348373889923096,7.321313858032227,6.9420166015625,0.33349645137786865,-0.4184788465499878,-0.34293603897094727,-0.009941651476375584,0.9729399681091309,0.024750079959630966,0.046409402042627335,42,6.920963287353516,7.321313858032227
S13,window5,5,0,baseline,1,360.0,420.0,1.0,6.540965557098389,0.18939733505249023,5.9722747802734375,6.78331995010376,6.622774124145508,0.32524991035461426,-0.6024929285049438,-0.8342423439025879,-0.00985116947938816,0.8110451698303223,0.01719764992594719,0.03274722397327423,42,6.551592826843262,6.78331995010376
S13,window6,6,0,baseline,1,420.0,480.0,1.0,5.982531547546387,0.21123524010181427,5.523698806762695,6.295087814331055,6.026445388793945,0.35007333755493164,-0.6185631155967712,-0.9686040878295898,-0.011146063912992898,0.7713890075683594,0.026111459359526634,0.05594606325030327,37,6.046006679534912,6.295087814331055
S13,window7,7,0,baseline,1,480.0,540.0,1.0,5.5472259521484375,0.12603674829006195,5.252814769744873,5.7475690841674805,5.521780490875244,0.21651685237884521,0.23779480159282684,-1.053960919380188,-0.005962662466776977,0.4947543144226074,0.014702090993523598,0.026739545166492462,40,5.568016052246094,5.7475690841674805
S13,window8,8,0,baseline,1,540.0,600.0,1.0,5.203589916229248,0.13788333535194397,4.971378803253174,5.426793098449707,5.1882123947143555,0.2555304765701294,0.06803607195615768,-1.373071312904358,-0.007922557330851367,0.4554142951965332,0.005245422013103962,0.007068993989378214,44,5.198475360870361,5.426793098449707
S13,window9,9,0,baseline,1,600.0,660.0,1.0,4.756421089172363,0.15978775918483734,4.268962860107422,4.9841718673706055,4.754538059234619,0.22162985801696777,-0.6609678268432617,0.02489495277404785,-0.008742947246376902,0.7152090072631836,0.01221479196101427,0.0282692052423954,36,4.791978359222412,4.979054927825928
S13,window10,10,0,baseline,1,660.0,720.0,1.0,4.416191577911377,0.35013025999069214,2.841262102127075,5.3046159744262695,4.357871055603027,0.3806006908416748,-0.4578043818473816,2.7154722213745117,-0.005106338532998068,2.4633538722991943,0.03871523588895798,0.0964023694396019,29,4.471644878387451,5.3046159744262695
S13,window11,11,0,baseline,1,720.0,780.0,1.0,4.120057582855225,0.1687174290418625,3.6626880168914795,4.416077136993408,4.1289753913879395,0.2311345338821411,-0.6477075219154358,-0.356553316116333,-0.005844506250636264,0.7533891201019287,0.024733608588576317,0.05732334032654762,38,4.136011123657227,4.3930511474609375
S13,window12,12,0,baseline,1,780.0,840.0,1.0,3.9802517890930176,0.064384825527668,3.4925479888916016,4.127057075500488,3.9863390922546387,0.053408682346343994,-2.0274415016174316,12.888907432556152,-0.0028752729870751177,0.6345090866088867,0.009115362539887428,0.03240954503417015,39,3.9914557933807373,4.127057075500488
S13,window13,13,0,baseline,1,840.0,900.0,1.0,3.7447736263275146,0.06581667065620422,3.655013084411621,3.877603054046631,3.7330470085144043,0.09530359506607056,0.5282362103462219,-0.9898910522460938,-0.003670709755158336,0.22258996963500977,0.0047476631589233875,0.006804929114878178,42,3.748337507247925,3.877603054046631
S13,window14,14,0,baseline,1,900.0,960.0,1.0,3.5811266899108887,0.044201698154211044,3.441378116607666,3.6678049564361572,3.5743465423583984,0.060591042041778564,0.044653113931417465,-0.5256867408752441,-0.002151834046038295,0.2264268398284912,0.005111029837280512,0.008302602916955948,41,3.589600086212158,3.6626880168914795
S13,window15,15,0,baseline,1,960.0,1020.0,1.0,3.5784199237823486,0.05494482442736626,3.4156460762023926,3.70475697517395,3.578111171722412,0.09114605188369751,0.12631633877754211,-0.8225209712982178,0.0016796506674981442,0.2891108989715576,0.008226805366575718,0.016670212149620056,38,3.579693555831909,3.70475697517395
S13,window16,16,0,baseline,1,1020.0,1080.0,1.0,3.520416736602783,0.0486028678715229,3.384943962097168,3.6254429817199707,3.514147996902466,0.07707482576370239,0.39008060097694397,-0.5158991813659668,-0.002702418725381608,0.24049901962280273,0.00445865374058485,0.00759640708565712,43,3.52467942237854,3.6254429817199707
S13,window17,17,0,baseline,1,1080.0,1140.0,1.0,3.3997833728790283,0.04927879571914673,3.29795503616333,3.529499053955078,3.382385015487671,0.08219170570373535,0.36011430621147156,-0.8683359622955322,-0.0018316912699491796,0.23154401779174805,0.007632696535438299,0.013077269308269024,41,3.4089064598083496,3.529499053955078
S13,window18,18,0,baseline,1,1140.0,1200.0,1.0,3.284501314163208,0.03948616981506348,3.208406925201416,3.3542420864105225,3.2762069702148438,0.07163810729980469,0.2890663146972656,-1.1460610628128052,-0.001983122227992826,0.14583516120910645,0.005834238138049841,0.009551744908094406,44,3.289261817932129,3.3529629707336426
S13,window19,19,0,baseline,1,1200.0,1260.0,1.0,3.167492389678955,0.06699837744235992,3.0715270042419434,3.294116973876953,3.138047933578491,0.11161398887634277,0.4109042286872864,-1.1977908611297607,-0.0032115991224143897,0.22258996963500977,0.0057058255188167095,0.008067694492638111,41,3.172619342803955,3.294116973876953
S13,window20,20,1,stress,2,3300.0,3360.0,1.0,11.76789379119873,0.5069315433502197,10.916155815124512,12.813225746154785,11.875718116760254,0.7865431308746338,-0.09104305505752563,-1.0557903051376343,0.024972666885110264,1.8970699310302734,0.06892688572406769,0.09842763096094131,26,11.983193397521973,12.813225746154785
S13,window21,21,1,stress,2,3360.0,3420.0,1.0,12.758070945739746,0.3566701412200928,11.539915084838867,13.455248832702637,12.831694602966309,0.5769176483154297,-0.3680238723754883,-0.09956574440002441,0.016091476167832977,1.9153337478637695,0.06725750118494034,0.11608747392892838,33,12.814605712890625,13.455248832702637
S13,window22,22,1,stress,2,3420.0,3480.0,1.0,13.515193939208984,0.28811389207839966,12.353813171386719,14.172513008117676,13.545707702636719,0.46475648880004883,-0.49425584077835083,0.2980799674987793,0.012445628892841664,1.818699836730957,0.05372430756688118,0.09930342435836792,35,13.561842918395996,14.172513008117676
S13,window23,23,1,stress,2,3480.0,3540.0,1.0,14.10831069946289,0.27546226978302,12.983476638793945,14.782126426696777,14.128084182739258,0.3704967498779297,-0.18326625227928162,0.6948299407958984,0.008689116355427046,1.798649787902832,0.07746231555938721,0.13983243703842163,32,14.180803298950195,14.782126426696777
S13,window24,24,1,stress,2,3540.0,3600.0,1.0,15.028934478759766,0.3912072479724884,13.535446166992188,15.656668663024902,15.036236763000488,0.5064644813537598,-0.7537277340888977,1.092534065246582,0.018593402129001572,2.121222496032715,0.06350033730268478,0.12244189530611038,34,15.131819725036621,15.656668663024902
S13,window25,25,1,stress,2,3600.0,3660.0,1.0,15.397309303283691,0.33997470140457153,13.558472633361816,15.780755996704102,15.476936340332031,0.2903895378112793,-2.5222795009613037,8.069952011108398,0.0037365438648432757,2.222283363342285,0.09825555980205536,0.18351459503173828,39,15.544780731201172,15.780755996704102
S13,window26,26,1,stress,2,3660.0,3720.0,1.0,15.611939430236816,0.2662939131259918,14.354394912719727,15.92147445678711,15.703361511230469,0.20883798599243164,-2.240849256515503,5.713165283203125,0.0017518774532055974,1.5670795440673828,0.07931890338659286,0.16000892221927643,39,15.707610130310059,15.92147445678711
S13,window27,27,1,stress,2,3720.0,3780.0,1.0,15.234044075012207,0.5200208425521851,13.376818656921387,15.801224708557129,15.367562294006348,0.5164966583251953,-1.505188226699829,1.6337213516235352,-0.012279748087941602,2.424406051635742,0.09096863865852356,0.16524897515773773,35,15.393047332763672,15.801224708557129
S13,window28,28,1,stress,2,3780.0,3840.0,1.0,14.791519165039062,0.4625729024410248,13.456131935119629,15.6195707321167,14.900635719299316,0.4953896999359131,-1.0895382165908813,0.4899933338165283,0.0034364696575470964,2.1634387969970703,0.07464170455932617,0.1655062735080719,37,14.835541725158691,15.6195707321167
S13,window29,29,1,stress,2,3840.0,3900.0,1.0,14.520829200744629,0.1695495843887329,13.854668617248535,14.805971145629883,14.513483047485352,0.19188761711120605,-1.1490627527236938,2.0473928451538086,-0.0033692972273330615,0.9513025283813477,0.0391838438808918,0.08000695705413818,37,14.565495491027832,14.805971145629883
S13,window30,30,2,meditation,4,4980.0,5040.0,1.0,6.024926662445068,0.021606458351016045,5.953527927398682,6.057147979736328,6.032201766967773,0.03262138366699219,-0.7179214358329773,-0.22512102127075195,-0.0011554942548861996,0.10362005233764648,0.0049884868785738945,0.007299761287868023,42,6.030191421508789,6.057147979736328
S13,window31,31,2,meditation,4,5040.0,5100.0,1.0,5.916743755340576,0.03562707081437111,5.8268818855285645,5.980391979217529,5.920907020568848,0.06300270557403564,-0.2340983748435974,-1.0037928819656372,-0.002021450186672348,0.15351009368896484,0.005127659533172846,0.007059170864522457,42,5.9187140464782715,5.980391979217529
S13,window32,32,2,meditation,4,5100.0,5160.0,1.0,5.79302453994751,0.034171998500823975,5.705352783203125,5.8511881828308105,5.794261455535889,0.05884599685668945,-0.1750066876411438,-0.9676949977874756,-0.0019394230583057366,0.14583539962768555,0.005277557764202356,0.007509605493396521,44,5.795016765594482,5.849907875061035
S13,window33,33,2,meditation,4,5160.0,5220.0,1.0,5.664027690887451,0.03803383186459541,5.567193984985352,5.732216835021973,5.665696144104004,0.06396198272705078,-0.04238364100456238,-0.9541165828704834,-0.0021619452629473165,0.1650228500366211,0.005218773148953915,0.007418052293360233,42,5.6676154136657715,5.732216835021973
S13,window34,34,2,meditation,4,5220.0,5280.0,1.0,5.532948017120361,0.047299522906541824,5.343325138092041,5.604291915893555,5.535212993621826,0.0882728099822998,-0.393197238445282,-0.3535037040710449,-0.0025940274121841974,0.26096677780151367,0.007323604077100754,0.01651584357023239,43,5.5432000160217285,5.604291915893555
S13,window35,35,2,meditation,4,5280.0,5340.0,1.0,5.489588260650635,0.03774921968579292,5.3436408042907715,5.663455009460449,5.4818010330200195,0.03006267547607422,1.8010870218276978,6.279488563537598,-0.0005694132359997307,0.31981420516967773,0.008446242660284042,0.021847626194357872,45,5.493143558502197,5.663455009460449
S14,window1,1,0,baseline,1,60.0,120.0,1.0,0.2869732677936554,0.0021334292832762003,0.277864009141922,0.29449400305747986,0.2868190109729767,0.0025590062141418457,-0.7091734409332275,3.430034637451172,-8.373059929073508e-06,0.01662999391555786,0.0017127988394349813,0.002463023643940687,41,0.28865957260131836,0.29449400305747986
S14,window2,2,0,baseline,1,120.0,180.0,1.0,0.28245842456817627,0.0027212481945753098,0.2740260064601898,0.2932150065898895,0.2817020118236542,0.0038380026817321777,0.5119335651397705,0.737929105758667,-9.875665539020623e-05,0.019189000129699707,0.001525570172816515,0.0023937805090099573,42,0.2839251756668091,0.2932150065898895
S14,window3,3,0,baseline,1,180.0,240.0,1.0,0.27627018094062805,0.012502627447247505,0.25099998712539673,0.34950199723243713,0.2759450078010559,0.011512994766235352,2.8897781372070312,12.565751075744629,-0.0004229102965210391,0.0985020101070404,0.002724494319409132,0.007354103960096836,32,0.2801826000213623,0.34950199723243713
S14,window4,4,0,baseline,1,240.0,300.0,1.0,0.26909559965133667,0.0018051189836114645,0.2586750090122223,0.2727470099925995,0.2689090073108673,0.001278996467590332,-1.6648554801940918,6.606314659118652,-3.8324032258831315e-05,0.014072000980377197,0.001611058134585619,0.002467202953994274,37,0.2706378698348999,0.2727470099925995
S14,window5,5,0,baseline,1,300.0,360.0,1.0,0.2656843364238739,0.0026654270477592945,0.25099998712539673,0.2727470099925995,0.26635101437568665,0.0028787553310394287,-1.3841718435287476,4.7797465324401855,-8.303079084132158e-05,0.02174702286720276,0.0015682558296248317,0.0024810098111629486,40,0.26747003197669983,0.2727470099925995
S14,window6,6,0,baseline,1,360.0,420.0,1.0,0.2669529318809509,0.0019710962660610676,0.26123398542404175,0.2727470099925995,0.267630010843277,0.0038380026817321777,-0.4066353142261505,-0.05710721015930176,4.729772687597786e-05,0.01151302456855774,0.001466539571993053,0.0019927413668483496,41,0.268253892660141,0.2727470099925995
S14,window7,7,0,baseline,1,420.0,480.0,1.0,0.2701990306377411,0.0018866895698010921,0.26123398542404175,0.2740260064601898,0.27018800377845764,0.0025590062141418457,-1.2455016374588013,3.004075527191162,6.65090195691704e-05,0.012792021036148071,0.0014988173497840762,0.002141854725778103,42,0.27155911922454834,0.2740260064601898
S14,window8,8,0,baseline,1,480.0,540.0,1.0,0.2783276438713074,0.003867387305945158,0.26507100462913513,0.28426000475883484,0.27914300560951233,0.00511699914932251,-0.734679102897644,-0.08560729026794434,0.00019266745109053327,0.019189000129699707,0.0015897536650300026,0.002359132282435894,36,0.27924978733062744,0.28426000475883484
S14,window9,9,0,baseline,1,540.0,600.0,1.0,0.27782121300697327,0.0036574217956513166,0.267630010843277,0.288098007440567,0.277864009141922,0.00511699914932251,-0.002787078032270074,-0.47342705726623535,-5.1381793538987045e-05,0.02046799659729004,0.0016485644737258554,0.0022841820027679205,38,0.2792440950870514,0.288098007440567
S14,window10,10,0,baseline,1,600.0,660.0,1.0,0.2739142179489136,0.0035661535803228617,0.26507100462913513,0.2817020118236542,0.2727470099925995,0.00511699914932251,0.6439757943153381,-0.46656107902526855,2.4581824030490297e-05,0.016631007194519043,0.001552246860228479,0.0022570621222257614,40,0.2752733826637268,0.2817020118236542
S14,window11,11,0,baseline,1,660.0,720.0,1.0,0.2826024293899536,0.0024717298801988363,0.27146801352500916,0.28937700390815735,0.2829810082912445,0.002557992935180664,-0.4272424578666687,1.6462087631225586,8.756659254808098e-05,0.017908990383148193,0.0017717410810291767,0.0025409553200006485,41,0.28419774770736694,0.28937700390815735
S14,window12,12,0,baseline,1,720.0,780.0,1.0,0.2894091010093689,0.0022672098129987717,0.2817020118236542,0.2957729995250702,0.28937700390815735,0.002557992935180664,-0.2668238878250122,0.40848350524902344,6.735207593722884e-05,0.014070987701416016,0.0015201763017103076,0.0022510013077408075,39,0.2911156415939331,0.2957729995250702
S14,window13,13,0,baseline,1,780.0,840.0,1.0,0.28812453150749207,0.0024563497863709927,0.27914300560951233,0.29449400305747986,0.288098007440567,0.002557992935180664,-0.49229300022125244,0.7899203300476074,-4.8175431114944286e-05,0.01535099744796753,0.001487982808612287,0.002272180048748851,37,0.2893770933151245,0.29449400305747986
S14,window14,14,0,baseline,1,840.0,900.0,1.0,0.293113648891449,0.004392510280013084,0.2817020118236542,0.3072870075702667,0.2919360101222992,0.0063970088958740234,0.32046398520469666,-0.2037954330444336,-9.428126383275951e-05,0.02558499574661255,0.0019162259995937347,0.0031005963683128357,39,0.29518306255340576,0.3072870075702667
S14,window15,15,0,baseline,1,900.0,960.0,1.0,0.2921755611896515,0.002993898233398795,0.2817020118236542,0.3008910119533539,0.2932150065898895,0.00511699914932251,-0.4602535367012024,0.6025588512420654,0.00014567782912859088,0.019189000129699707,0.0014558190014213324,0.002147968392819166,40,0.29359859228134155,0.3008910119533539
S14,window16,16,0,baseline,1,960.0,1020.0,1.0,0.30076268315315247,0.008947877213358879,0.267630010843277,0.3111250102519989,0.30344900488853455,0.00511699914932251,-1.6335598230361938,1.5566401481628418,0.0003893994688356468,0.043494999408721924,0.0016966724069789052,0.0028022779151797295,36,0.30231189727783203,0.3111250102519989
S14,window17,17,0,baseline,1,1020.0,1080.0,1.0,0.3100958466529846,0.0023469561710953712,0.3021700084209442,0.31752100586891174,0.3098450005054474,0.0038380026817321777,-0.16415825486183167,0.3957531452178955,9.326044899587128e-05,0.01535099744796753,0.0016056766035035253,0.0024987892247736454,38,0.3117641806602478,0.31752100586891174
S14,window18,18,0,baseline,1,1080.0,1140.0,1.0,0.3101491928100586,0.003918076399713755,0.3021700084209442,0.31752100586891174,0.30856600403785706,0.006395995616912842,0.137130007147789,-1.3861770629882812,-0.00015603503650418065,0.01535099744796753,0.001370229758322239,0.0018976869760081172,42,0.3116424083709717,0.31752100586891174
S14,window19,19,0,baseline,1,1140.0,1200.0,1.0,0.3078998625278473,0.0026907832361757755,0.29961100220680237,0.31752100586891174,0.3072870075702667,0.002557992935180664,0.4119207561016083,1.3987092971801758,-4.9478846930486764e-05,0.017910003662109375,0.0016699321568012238,0.002487917896360159,41,0.3095645308494568,0.31752100586891174
S14,window20,20,1,stress,2,1920.0,1980.0,1.0,0.33561164140701294,0.006322895642369986,0.31368300318717957,0.3443849980831146,0.33671000599861145,0.0038380026817321777,-1.7892189025878906,2.818784236907959,0.00023296104944605173,0.03070199489593506,0.0017448862781748176,0.002440657000988722,38,0.3380560576915741,0.3443849980831146
S14,window21,21,1,stress,2,1980.0,2040.0,1.0,0.3390869200229645,0.004048035480082035,0.3290340006351471,0.34950199723243713,0.3379890024662018,0.00511699914932251,0.3721022307872772,0.0625312328338623,0.00014144730505014926,0.02046799659729004,0.0017181248404085636,0.0026696741115301847,40,0.3410910665988922,0.34950199723243713
S14,window22,22,1,stress,2,2040.0,2100.0,1.0,0.3406006395816803,0.0028022245969623327,0.3303129971027374,0.3482230007648468,0.34054699540138245,0.0025590062141418457,-0.21715687215328217,1.468569278717041,-1.3846035630677793e-05,0.017910003662109375,0.002103594597429037,0.003018803894519806,40,0.34262627363204956,0.3482230007648468
S14,window23,23,1,stress,2,2100.0,2160.0,1.0,0.3420931398868561,0.002715721260756254,0.3341509997844696,0.35078099370002747,0.34182700514793396,0.0025590062141418457,0.6017824411392212,0.7727408409118652,9.066035632497402e-05,0.01662999391555786,0.001691473531536758,0.002307891845703125,38,0.34398120641708374,0.35078099370002747
S14,window24,24,1,stress,2,2160.0,2220.0,1.0,0.35117581486701965,0.002392103197053075,0.34182700514793396,0.35589799284935,0.3514209985733032,0.0038380026817321777,-0.5475480556488037,0.21030616760253906,-5.0083489013953735e-05,0.014070987701416016,0.0018145018257200718,0.0026646764017641544,42,0.35288307070732117,0.35589799284935
S14,window25,25,1,stress,2,2220.0,2280.0,1.0,0.36042365431785583,0.020692914724349976,0.34182700514793396,0.57464998960495,0.352061003446579,0.020787745714187622,5.94054651260376,52.8712272644043,0.0005583744021318367,0.232822984457016,0.003548698266968131,0.01355087012052536,41,0.3656955063343048,0.57464998960495
S14,window26,26,1,stress,2,2280.0,2340.0,1.0,0.33334091305732727,0.029398616403341293,0.2932150065898895,0.3802039921283722,0.3341509997844696,0.06652098894119263,0.06083625182509422,-1.5847781896591187,-0.0016115016313383074,0.08698898553848267,0.0022588628344237804,0.0036342518869787455,40,0.335078626871109,0.3802039921283722
S14,window27,27,1,stress,2,2340.0,2400.0,1.0,0.307281494140625,0.007867232896387577,0.2919360101222992,0.3213590085506439,0.30664750933647156,0.014070987701416016,0.20977738499641418,-1.2247883081436157,9.166720294338012e-05,0.029422998428344727,0.0016164642293006182,0.0024293996393680573,37,0.3090154826641083,0.3213590085506439
S14,window28,28,1,stress,2,2400.0,2460.0,1.0,0.3233361840248108,0.009729009121656418,0.29833200573921204,0.3341509997844696,0.32647600769996643,0.011832743883132935,-1.0288645029067993,-0.3760359287261963,0.0004840520108585765,0.03581899404525757,0.0015790211036801338,0.002362540690228343,38,0.32536476850509644,0.3341509997844696
S14,window29,29,1,stress,2,2460.0,2520.0,1.0,0.32997220754623413,0.0025889002718031406,0.32263800501823425,0.3379890024662018,0.3303129971027374,0.0025590062141418457,0.08198072761297226,0.7760696411132812,7.454108849575612e-05,0.01535099744796753,0.0015040753642097116,0.002273662481456995,36,0.33137941360473633,0.3379890024662018
S14,window30,30,2,meditation,4,4980.0,5040.0,1.0,0.3099893629550934,0.002370324917137623,0.3008910119533539,0.31368300318717957,0.3098450005054474,0.0025590062141418457,-1.127396583557129,2.044188976287842,8.93707821693209e-05,0.012791991233825684,0.0014398536877706647,0.0021715136244893074,40,0.311380535364151,0.31368300318717957
S14,window31,31,2,meditation,4,5040.0,5100.0,1.0,0.3131500482559204,0.0017287102527916431,0.3072870075702667,0.3162420094013214,0.31368300318717957,0.001278996467590332,-1.149287223815918,1.9445314407348633,2.9938385390117636e-05,0.008955001831054688,0.0015199983026832342,0.0021985326893627644,40,0.31448253989219666,0.3162420094013214
S14,window32,32,2,meditation,4,5100.0,5160.0,1.0,0.3141040802001953,0.0015337498625740409,0.3072870075702667,0.31752100586891174,0.31368300318717957,0.001278996467590332,-1.1461721658706665,3.5339345932006836,3.290008792020534e-05,0.01023399829864502,0.001306008081883192,0.0019299682462587953,39,0.3155199885368347,0.31752100586891174
S14,window33,33,2,meditation,4,5160.0,5220.0,1.0,0.31569796800613403,0.0015898931305855513,0.30856600403785706,0.3200789988040924,0.3162420094013214,0.0012800097465515137,-1.3045263290405273,4.004780292510986,3.309331266587669e-05,0.011512994766235352,0.0013917881296947598,0.002077039098367095,38,0.3170833885669708,0.3200789988040924
S14,window34,34,2,meditation,4,5220.0,5280.0,1.0,0.31682273745536804,0.0015034280950203538,0.3098450005054474,0.3200789988040924,0.31752100586891174,0.001278996467590332,-1.676729440689087,4.694662570953369,-5.094434311032541e-07,0.01023399829864502,0.0012952585238963366,0.0019334706012159586,37,0.3180740773677826,0.3200789988040924
S14,window35,35,2,meditation,4,5280.0,5340.0,1.0,0.3186774253845215,0.0016776275588199496,0.30856600403785706,0.32263800501823425,0.3188000023365021,0.001278996467590332,-1.973077416419983,7.42258358001709,2.6917290560486553e-05,0.014072000980377197,0.0014450567541643977,0.0022628994192928076,40,0.31995126605033875,0.32263800501823425
S15,window1,1,0,baseline,1,120.0,180.0,1.0,0.24214614927768707,0.015158282592892647,0.2215770035982132,0.277864009141922,0.2356490045785904,0.02846376597881317,0.6521271467208862,-0.9850418567657471,0.0007045586094228891,0.0562870055437088,0.002280201530084014,0.004699631128460169,38,0.24608464539051056,0.277864009141922
S15,window2,2,0,baseline,1,180.0,240.0,1.0,0.2658122777938843,0.004693375900387764,0.25099998712539673,0.27530500292778015,0.26507100462913513,0.007674992084503174,-0.2774637043476105,-0.7788083553314209,-0.00022116827937670154,0.024305015802383423,0.0017556864768266678,0.002542268019169569,40,0.26759791374206543,0.27530500292778015
S15,window3,3,0,baseline,1,240.0,300.0,1.0,0.26214510202407837,0.004540223628282547,0.25227901339530945,0.2727470099925995,0.26123398542404175,0.006395995616912842,0.44796305894851685,-0.6151213645935059,6.646670621124951e-05,0.02046799659729004,0.0017716716974973679,0.0024724681861698627,40,0.2636641561985016,0.2727470099925995
S15,window4,4,0,baseline,1,300.0,360.0,1.0,0.2709399461746216,0.0046081095933914185,0.24844099581241608,0.27914300560951233,0.27146801352500916,0.0025590062141418457,-2.7269740104675293,8.432199478149414,5.377366569452614e-05,0.030702009797096252,0.001771719311363995,0.002631088951602578,41,0.27243489027023315,0.27914300560951233
S15,window5,5,0,baseline,1,360.0,420.0,1.0,0.268072247505188,0.007688922807574272,0.2497200071811676,0.27658501267433167,0.2727470099925995,0.014072000980377197,-0.6806923151016235,-1.1854126453399658,-0.00035417202370711454,0.026865005493164062,0.0016377981519326568,0.002422254765406251,40,0.2696446180343628,0.27658501267433167
S15,window6,6,0,baseline,1,420.0,480.0,1.0,0.2654605507850647,0.008149797096848488,0.24204500019550323,0.27658501267433167,0.2689090073108673,0.01535099744796753,-0.3795391321182251,-1.3577816486358643,0.00023084994798157712,0.03454001247882843,0.001782336039468646,0.0029047492425888777,37,0.267284095287323,0.27658501267433167
S15,window7,7,0,baseline,1,480.0,540.0,1.0,0.2641918957233429,0.016178278252482414,0.23692800104618073,0.288098007440567,0.2695485055446625,0.033260002732276917,-0.24171723425388336,-1.5601561069488525,-0.0008053018067573944,0.05117000639438629,0.001969774253666401,0.0028439192101359367,41,0.26756751537323,0.288098007440567
S15,window8,8,0,baseline,1,540.0,600.0,1.0,0.2566229999065399,0.011305720545351505,0.23181100189685822,0.277864009141922,0.2586750090122223,0.019508764147758484,-0.27994027733802795,-1.1099547147750854,0.0004354504017733101,0.04605300724506378,0.0034844917245209217,0.004972307942807674,35,0.26137980818748474,0.277864009141922
S15,window9,9,0,baseline,1,600.0,660.0,1.0,0.26151615381240845,0.00989503413438797,0.2458830028772354,0.28553900122642517,0.26635101437568665,0.018228769302368164,-0.05856897681951523,-1.3755990266799927,4.9951835305458405e-05,0.03965599834918976,0.0017127662431448698,0.0025168894790112972,37,0.26393041014671326,0.27530500292778015
S15,window10,10,0,baseline,1,660.0,720.0,1.0,0.2842921018600464,0.00443597137928009,0.2740260064601898,0.2932150065898895,0.28426000475883484,0.0076760053634643555,0.058677591383457184,-1.09398353099823,-9.973190954967751e-06,0.019189000129699707,0.0018734228797256947,0.002729443833231926,39,0.28612977266311646,0.2932150065898895
S15,window11,11,0,baseline,1,720.0,780.0,1.0,0.2909708619117737,0.004554787650704384,0.27914300560951233,0.30344900488853455,0.2906560003757477,0.006395995616912842,-0.0009238289203494787,-0.2873694896697998,0.00023953945283378461,0.024305999279022217,0.0015414719237014651,0.0023970401380211115,37,0.29231593012809753,0.30344900488853455
S15,window12,12,0,baseline,1,780.0,840.0,1.0,0.3055225610733032,0.004408723674714565,0.2919360101222992,0.31752100586891174,0.3060080111026764,0.006395995616912842,0.044227007776498795,-0.37596631050109863,0.00023220878623939566,0.02558499574661255,0.0016432299744337797,0.002379517536610365,41,0.30706843733787537,0.31752100586891174
S15,window13,13,0,baseline,1,840.0,900.0,1.0,0.2863869369029999,0.01301391702145338,0.26635101437568665,0.3162420094013214,0.2817020118236542,0.013111740350723267,1.1207151412963867,-0.04243898391723633,-0.000631907017322592,0.049890995025634766,0.002215962391346693,0.0033883836586028337,38,0.28870394825935364,0.3162420094013214
S15,window14,14,0,baseline,1,900.0,960.0,1.0,0.2977884113788605,0.014679121784865856,0.267630010843277,0.31368300318717957,0.30344900488853455,0.03198099136352539,-0.7439801692962646,-1.1357641220092773,0.0007580117131337549,0.04605299234390259,0.0018144763307645917,0.0029132079798728228,38,0.29887062311172485,0.31368300318717957
S15,window15,15,0,baseline,1,960.0,1020.0,1.0,0.3126170337200165,0.010822560638189316,0.27658501267433167,0.3213590085506439,0.3162420094013214,0.00511699914932251,-2.0841243267059326,2.920658588409424,-0.00019132265465282575,0.044773995876312256,0.0022908232640475035,0.0040688724257051945,38,0.31529900431632996,0.3213590085506439
S15,window16,16,0,baseline,1,1020.0,1080.0,1.0,0.30546924471855164,0.009775612503290176,0.2829810082912445,0.3303129971027374,0.3098450005054474,0.016950756311416626,-0.5112004280090332,-0.9256834983825684,-0.00023660012137076403,0.04733198881149292,0.0023229827638715506,0.003839693032205105,40,0.307158887386322,0.3303129971027374
S15,window17,17,0,baseline,1,1080.0,1140.0,1.0,0.3103570342063904,0.012501871213316917,0.2829810082912445,0.33159300684928894,0.31368300318717957,0.023027002811431885,-0.2598138749599457,-1.303577184677124,-2.4764104925028124e-05,0.048611998558044434,0.002745916834101081,0.0040880790911614895,35,0.31459686160087585,0.33159300684928894
S15,window18,18,0,baseline,1,1140.0,1200.0,1.0,0.3184003233909607,0.014880038797855377,0.28042200207710266,0.3341509997844696,0.3251959979534149,0.01694999635219574,-1.1155617237091064,-0.3304111957550049,-0.0003545228194299645,0.05372899770736694,0.0024568920489400625,0.0037962784990668297,39,0.3214898705482483,0.3341509997844696
S15,window19,19,0,baseline,1,1200.0,1260.0,1.0,0.3014448881149292,0.012636286206543446,0.27658501267433167,0.33159300684928894,0.3040885031223297,0.024626001715660095,-0.2362041026353836,-1.0850313901901245,0.00038432252258266517,0.055007994174957275,0.0017823845846578479,0.0027969591319561005,38,0.301934152841568,0.33159300684928894
S15,window20,20,1,stress,2,3120.0,3180.0,1.0,0.9906467199325562,0.06669998914003372,0.8420140147209167,1.145264983177185,0.9865689873695374,0.07323670387268066,0.03936642035841942,-0.29741859436035156,0.0033813514203072754,0.3032509684562683,0.00908291433006525,0.013480592519044876,30,1.004452109336853,1.120959997177124
S15,window21,21,1,stress,2,3180.0,3240.0,1.0,1.1839041709899902,0.052849918603897095,1.0953749418258667,1.3333150148391724,1.1951559782028198,0.08634978532791138,0.2556389570236206,-0.4439277648925781,0.001697614140849068,0.23794007301330566,0.007215147837996483,0.010972898453474045,34,1.189738154411316,1.3333150148391724
S15,window22,22,1,stress,2,3240.0,3300.0,1.0,1.29060959815979,0.04048316925764084,1.1836429834365845,1.4062329530715942,1.2936580181121826,0.04605293273925781,0.11774162948131561,0.2313690185546875,0.0004257606748893096,0.22258996963500977,0.006208975333720446,0.010143626481294632,32,1.2995750904083252,1.4062329530715942
S15,window23,23,1,stress,2,3300.0,3360.0,1.0,1.352669358253479,0.03465576842427254,1.252722978591919,1.4139080047607422,1.3595399856567383,0.05532768368721008,-0.3829669952392578,-0.49608469009399414,0.001418499526332804,0.16118502616882324,0.00773971900343895,0.01485203206539154,39,1.3601467609405518,1.4139080047607422
S15,window24,24,1,stress,2,3360.0,3420.0,1.0,1.3774961233139038,0.02895662561058998,1.2937569618225098,1.4868249893188477,1.3755805492401123,0.03749197721481323,0.5518701672554016,1.2454962730407715,-2.6432107365364483e-05,0.1930680274963379,0.005892724264413118,0.009495322592556477,36,1.3854615688323975,1.4868249893188477
S15,window25,25,1,stress,2,3420.0,3480.0,1.0,1.4677516222000122,0.07782448828220367,1.3103879690170288,1.5764720439910889,1.5009959936141968,0.14135679602622986,-0.660380482673645,-0.9924325942993164,0.002666009532513075,0.26608407497406006,0.004180300515145063,0.00633383821696043,30,1.467095971107483,1.5764720439910889
S15,window26,26,1,stress,2,3480.0,3540.0,1.0,1.5075523853302002,0.04200808331370354,1.4395920038223267,1.6429929733276367,1.502274990081787,0.05148974061012268,0.8876815438270569,0.9274125099182129,-0.0013819098470525602,0.20340096950531006,0.0042017363011837006,0.0056588114239275455,25,1.5039639472961426,1.6429929733276367
S15,window27,27,1,stress,2,3540.0,3600.0,1.0,1.4427688121795654,0.02188040316104889,1.396098017692566,1.4946000576019287,1.4421509504318237,0.03454005718231201,0.15549004077911377,-0.8320868015289307,-0.0002709865803937769,0.09850203990936279,0.0033988228533416986,0.005775441415607929,32,1.4430301189422607,1.4946000576019287
S15,window28,28,1,stress,2,3600.0,3660.0,1.0,1.4134101867675781,0.02699967660009861,1.3705120086669922,1.5125089883804321,1.406332015991211,0.035819053649902344,1.1870366334915161,1.734154224395752,-0.00040390476418605267,0.14199697971343994,0.0038163731805980206,0.005323697347193956,28,1.4166568517684937,1.5125089883804321
S15,window29,29,1,stress,2,3660.0,3720.0,1.0,1.3594095706939697,0.052650127559900284,1.2566590309143066,1.4587810039520264,1.341728925704956,0.0927465558052063,0.12165606766939163,-1.2867199182510376,-0.0026954751271013964,0.20212197303771973,0.005138418637216091,0.008467873558402061,35,1.362434983253479,1.4587810039520264
S15,window30,30,1,stress,2,3720.0,3780.0,1.0,1.2602943181991577,0.02233169786632061,1.1952550411224365,1.3001539707183838,1.264335036277771,0.03230169415473938,-0.6092042326927185,0.0354609489440918,-0.0006084045717440112,0.10489892959594727,0.004030433017760515,0.006219765171408653,35,1.266491174697876,1.3001539707183838
S15,window31,31,2,meditation,4,4740.0,4800.0,1.0,0.6947770714759827,0.05961548537015915,0.5798360109329224,0.7333459854125977,0.7282289862632751,0.01727050542831421,-1.2104989290237427,-0.5010106563568115,-0.0026138519631895172,0.1535099744796753,0.002788817510008812,0.007154614198952913,44,0.6980507373809814,0.7333459854125977
S15,window32,32,2,meditation,4,4800.0,4860.0,1.0,0.5578490495681763,0.012445779517292976,0.5325040221214294,0.5811160206794739,0.5568100214004517,0.019189000129699707,0.09132082760334015,-1.105989694595337,-0.0007098932405232519,0.048611998558044434,0.0020232379902154207,0.0028527588583528996,40,0.5591123700141907,0.5811160206794739
S15,window33,33,2,meditation,4,4860.0,4920.0,1.0,0.5207933783531189,0.008816325105726719,0.5056399703025818,0.537621021270752,0.5209910273551941,0.01535099744796753,0.09240022301673889,-1.1659622192382812,-0.0005003741069846648,0.031981050968170166,0.0016699430998414755,0.0023832982406020164,41,0.5220202803611755,0.537621021270752
S15,window34,34,2,meditation,4,4920.0,4980.0,1.0,0.5595381855964661,0.015615765005350113,0.5005229711532593,0.5772089958190918,0.5618579983711243,0.011512994766235352,-2.6191413402557373,6.908459663391113,2.194005291599399e-05,0.07668602466583252,0.0018784805433824658,0.0053862337954342365,40,0.5616375803947449,0.5772089958190918
S15,window35,35,2,meditation,4,4980.0,5040.0,1.0,0.5410006046295166,0.007010189816355705,0.527318000793457,0.5541819930076599,0.5407500267028809,0.011514008045196533,-0.013661733828485012,-1.184381127357483,-0.00039233370266779496,0.02686399221420288,0.0017663345206528902,0.0024916022084653378,42,0.5426080822944641,0.5529029965400696
S16,window1,1,0,baseline,1,120.0,180.0,1.0,0.291032612323761,0.0076755438931286335,0.2725130021572113,0.3070569932460785,0.2897855043411255,0.014073014259338379,0.2193073332309723,-1.2555266618728638,-0.0003592701097973478,0.03454399108886719,0.0017933384515345097,0.00267695146612823,37,0.2919118106365204,0.3070569932460785
S16,window2,2,0,baseline,1,180.0,240.0,1.0,0.28031226992607117,0.0055084326304495335,0.2661159932613373,0.2929840087890625,0.2789100110530853,0.00511699914932251,0.22168667614459991,-0.13306713104248047,-0.000229446774170725,0.02686801552772522,0.0018362044356763363,0.002675206633284688,37,0.2821606695652008,0.2929840087890625
S16,window3,3,0,baseline,1,240.0,300.0,1.0,0.27482137084007263,0.0050880624912679195,0.2622779905796051,0.2865869998931885,0.2763510048389435,0.006717011332511902,-0.6434213519096375,-0.2185347080230713,-0.00010581609549776122,0.024309009313583374,0.001889628591015935,0.002841539680957794,37,0.2773541510105133,0.2865869998931885
S16,window4,4,0,baseline,1,300.0,360.0,1.0,0.27713504433631897,0.0037582784425467253,0.26483699679374695,0.28530699014663696,0.2789100110530853,0.005117982625961304,-1.0344979763031006,0.4821434020996094,2.879343463694825e-05,0.020469993352890015,0.0018790126778185368,0.0027535120025277138,37,0.27901405096054077,0.28530699014663696
S16,window5,5,0,baseline,1,360.0,420.0,1.0,0.2790381610393524,0.0036502289585769176,0.26483699679374695,0.291703999042511,0.2789100110530853,0.005117982625961304,0.030473707243800163,1.430823802947998,0.0001388252044825533,0.026867002248764038,0.001702290028333664,0.0025150743313133717,36,0.2810426354408264,0.291703999042511
S16,window6,6,0,baseline,1,420.0,480.0,1.0,0.2813677489757538,0.004150256048887968,0.26995399594306946,0.291703999042511,0.2814689874649048,0.005117982625961304,0.002812010236084461,-0.06121397018432617,-0.00011511879276986328,0.02175000309944153,0.0016808895161375403,0.0024184451904147863,37,0.28319787979125977,0.291703999042511
S16,window7,7,0,baseline,1,480.0,540.0,1.0,0.2817462384700775,0.00474755372852087,0.27123400568962097,0.2929840087890625,0.28018999099731445,0.006396979093551636,0.5304778814315796,-0.2551538944244385,0.00017996632099134837,0.02175000309944153,0.001638050191104412,0.002383831422775984,42,0.28277888894081116,0.2929840087890625
S16,window8,8,0,baseline,1,540.0,600.0,1.0,0.2841344475746155,0.0041230302304029465,0.2737930119037628,0.29554298520088196,0.28402799367904663,0.005118012428283691,-0.04888414964079857,-0.2613108158111572,9.74770296915317e-05,0.02174997329711914,0.0020985088776797056,0.002985782688483596,37,0.2866559624671936,0.29554298520088196
S16,window9,9,0,baseline,1,600.0,660.0,1.0,0.2875036299228668,0.00376539072021842,0.277631014585495,0.2968220114707947,0.2865869998931885,0.005118012428283691,0.14914560317993164,-0.5384154319763184,-0.00014337758593336797,0.019190996885299683,0.0017023652326315641,0.0024882524739950895,36,0.28896793723106384,0.2968220114707947
S16,window10,10,0,baseline,1,660.0,720.0,1.0,0.29085680842399597,0.010157564654946327,0.2814689874649048,0.35695400834083557,0.2891460061073303,0.0025590062141418457,5.101934432983398,26.477304458618164,6.685431283924329e-05,0.07548502087593079,0.0020127571187913418,0.00409799674525857,36,0.2922019362449646,0.35695400834083557
S16,window11,11,0,baseline,1,720.0,780.0,1.0,0.292061448097229,0.0024779539089649916,0.28530699014663696,0.3032189905643463,0.291703999042511,0.0025590062141418457,1.0448914766311646,3.576462745666504,7.566468903259719e-05,0.01791200041770935,0.0013114945031702518,0.0020388755947351456,39,0.2936069965362549,0.3032189905643463
S16,window12,12,0,baseline,1,780.0,840.0,1.0,0.29263198375701904,0.005096180830150843,0.277631014585495,0.31473401188850403,0.29234400391578674,0.005117982625961304,0.8905953764915466,3.9594850540161133,-7.171771315605861e-05,0.03710299730300903,0.0017558769322931767,0.0025999420322477818,38,0.29409486055374146,0.30961599946022034
S16,window13,13,0,baseline,1,840.0,900.0,1.0,0.3022860884666443,0.005718919914215803,0.29042500257492065,0.32496899366378784,0.30066001415252686,0.00511699914932251,1.4498456716537476,3.747978687286377,3.968022631659809e-06,0.03454399108886719,0.001739728031679988,0.002895359881222248,35,0.30365756154060364,0.32496899366378784
S16,window14,14,0,baseline,1,900.0,960.0,1.0,0.2882286310195923,0.004589834716171026,0.28018999099731445,0.3121750056743622,0.2878659963607788,0.005118012428283691,1.9112974405288696,7.502603530883789,-9.046359942538255e-06,0.03198501467704773,0.0016487832181155682,0.0025853761471807957,35,0.2902056574821472,0.3121750056743622
S16,window15,15,0,baseline,1,960.0,1020.0,1.0,0.28425177931785583,0.007053566165268421,0.2673960030078888,0.3070569932460785,0.2827480137348175,0.010235995054244995,0.7059029340744019,0.10976552963256836,-5.5989286959959784e-05,0.0396609902381897,0.0026658775750547647,0.004154324997216463,37,0.28772783279418945,0.3070569932460785
S16,window16,16,0,baseline,1,1020.0,1080.0,1.0,0.2821621000766754,0.004553148988634348,0.2686749994754791,0.2968220114707947,0.2814689874649048,0.006396979093551636,0.6628936529159546,0.8117368221282959,-5.8976476661332915e-05,0.028147011995315552,0.002392982831224799,0.0036007286980748177,39,0.2849138081073761,0.2968220114707947
S16,window17,17,0,baseline,1,1080.0,1140.0,1.0,0.2845768630504608,0.001784385647624731,0.277631014585495,0.2878659963607788,0.28530699014663696,0.001278996467590332,-0.7754544019699097,0.9269676208496094,4.432803113112626e-05,0.010234981775283813,0.001434763427823782,0.002080590231344104,42,0.2856728136539459,0.2878659963607788
S16,window18,18,0,baseline,1,1140.0,1200.0,1.0,0.29073411226272583,0.005735963582992554,0.2789100110530853,0.3032189905643463,0.2878659963607788,0.010235011577606201,0.35902395844459534,-1.236321210861206,2.8513756509714254e-05,0.024308979511260986,0.002232268452644348,0.003331765765324235,39,0.2928525507450104,0.3032189905643463
S16,window19,19,0,baseline,1,1200.0,1260.0,1.0,0.2944923937320709,0.004336540587246418,0.28530699014663696,0.30961599946022034,0.29426300525665283,0.005118012428283691,0.919952392578125,1.4775309562683105,6.630319882917718e-05,0.024309009313583374,0.001953874249011278,0.0029035501647740602,37,0.2965107560157776,0.30961599946022034
S16,window20,20,1,stress,2,2040.0,2100.0,1.0,1.7806223630905151,0.14227737486362457,1.5779409408569336,2.0655930042266846,1.743623971939087,0.2293337881565094,0.47475090622901917,-1.0790190696716309,0.00714698721649362,0.487652063369751,0.010835649445652962,0.016645919531583786,26,1.780935525894165,2.0655930042266846
S16,window21,21,1,stress,2,2100.0,2160.0,1.0,2.1712615489959717,0.08233363181352615,1.9837110042572021,2.321474075317383,2.1948130130767822,0.12378251552581787,-0.5799046754837036,-0.5886332988739014,0.003623856824955882,0.33776307106018066,0.009020076133310795,0.012244136072695255,27,2.180881977081299,2.321474075317383
S16,window22,22,1,stress,2,2160.0,2220.0,1.0,2.323206901550293,0.03776361793279648,2.2549450397491455,2.4251060485839844,2.317636013031006,0.05757308006286621,0.5805913209915161,-0.415663480758667,0.00014439138240843929,0.17016100883483887,0.008677459321916103,0.0117300134152174,25,2.339385747909546,2.4251060485839844
S16,window23,23,1,stress,2,2220.0,2280.0,1.0,2.3652379512786865,0.04917772859334946,2.290769100189209,2.533334970474243,2.3589563369750977,0.05296546220779419,1.0549099445343018,0.9787807464599609,0.0007737836965423993,0.24256587028503418,0.008240718394517899,0.01283936109393835,30,2.3826146125793457,2.533334970474243
S16,window24,24,1,stress,2,2280.0,2340.0,1.0,2.4553182125091553,0.0647306740283966,2.3324689865112305,2.656157970428467,2.44185733795166,0.06812793016433716,1.0730464458465576,1.127458095550537,0.0014441162685662197,0.32368898391723633,0.010535032488405704,0.01510655041784048,31,2.4633805751800537,2.656157970428467
S16,window25,25,1,stress,2,2340.0,2400.0,1.0,2.388831853866577,0.09511610120534897,2.2006900310516357,2.5768349170684814,2.383005142211914,0.1576860547065735,-0.15807504951953888,-1.0552397966384888,-0.005381045054804951,0.3761448860168457,0.004651897586882114,0.006658540572971106,35,2.3991804122924805,2.5768349170684814
S16,window26,26,1,stress,2,2400.0,2460.0,1.0,2.0298142433166504,0.09516511112451553,1.8698439598083496,2.199410915374756,2.031809091567993,0.15652668476104736,0.07158616930246353,-1.1818264722824097,-0.005476037809696834,0.32956695556640625,0.003128485754132271,0.00412019994109869,32,2.0437257289886475,2.1981310844421387
S16,window27,27,1,stress,2,2460.0,2520.0,1.0,1.780760407447815,0.052368033677339554,1.694566011428833,1.8762409687042236,1.7713299989700317,0.08092275261878967,0.25756287574768066,-1.0097602605819702,-0.002927456460240578,0.18167495727539062,0.0031101733911782503,0.00401481706649065,35,1.7821136713027954,1.8762409687042236
S16,window28,28,1,stress,2,2520.0,2580.0,1.0,1.645799160003662,0.036363642662763596,1.5781400203704834,1.713757038116455,1.6555440425872803,0.06684902310371399,-0.23466162383556366,-1.134522557258606,-0.001954043968495547,0.13561701774597168,0.0031476588919758797,0.00409501139074564,33,1.6454445123672485,1.713757038116455
S16,window29,29,1,stress,2,2580.0,2640.0,1.0,1.5868293046951294,0.029038013890385628,1.5333609580993652,1.6472280025482178,1.5845370292663574,0.04477894306182861,0.06064864620566368,-0.9195356369018555,-6.234949501329485e-05,0.11386704444885254,0.0038061111699789762,0.006052641198039055,31,1.593245267868042,1.6472280025482178
S16,window30,30,2,meditation,4,5040.0,5100.0,1.0,0.4280623197555542,0.014125201851129532,0.3956030011177063,0.4902789890766144,0.42375001311302185,0.008955985307693481,2.8744094371795654,9.597654342651367,-0.0002505792350114525,0.09467598795890808,0.0022001685574650764,0.004454051610082388,41,0.4281807541847229,0.4902789890766144
S16,window31,31,2,meditation,4,5100.0,5160.0,1.0,0.42755576968193054,0.0042447797022759914,0.41351398825645447,0.4365440011024475,0.42758798599243164,0.0038389861583709717,-0.7810313701629639,0.39656615257263184,0.00019723534212544555,0.023030012845993042,0.0017344693187624216,0.0024486167822033167,40,0.4292830526828766,0.4365440011024475
S16,window32,32,2,meditation,4,5160.0,5220.0,1.0,0.4288618862628937,0.003271192079409957,0.4199109971523285,0.4391019940376282,0.42886701226234436,0.005117982625961304,0.05699123814702034,-0.3536837100982666,-0.00015968880153935722,0.019190996885299683,0.0014987901085987687,0.0021673727314919233,40,0.4304024577140808,0.4391019940376282
S16,window33,33,2,meditation,4,5220.0,5280.0,1.0,0.42239031195640564,0.0018057703273370862,0.41351398825645447,0.4263080060482025,0.42247000336647034,0.0025590062141418457,-0.9920235872268677,3.162120819091797,-4.787798997778541e-05,0.012794017791748047,0.0014882159885019064,0.002090370748192072,44,0.4237787425518036,0.4263080060482025
S16,window34,34,2,meditation,4,5280.0,5340.0,1.0,0.41988468170166016,0.0018409333424642682,0.41223499178886414,0.42375001311302185,0.4199109971523285,0.0025590062141418457,-0.911729097366333,2.2933340072631836,-4.281533698050289e-05,0.011515021324157715,0.0017826220719143748,0.0024339640513062477,43,0.42169660329818726,0.42375001311302185
S16,window35,35,2,meditation,4,5340.0,5400.0,1.0,0.41799765825271606,0.001647469005547464,0.41223499178886414,0.42119100689888,0.41863200068473816,0.001278996467590332,-0.5772655010223389,0.5656938552856445,-5.155288605423501e-05,0.00895601511001587,0.0014078086242079735,0.0018996907165274024,43,0.4191972613334656,0.42119100689888
S17,window1,1,0,baseline,1,120.0,180.0,1.0,1.8850212097167969,0.03667613863945007,1.8097120523452759,2.0719900131225586,1.8915940523147583,0.05789270997047424,0.5089244842529297,1.7208976745605469,-0.0017576011202542793,0.2622779607772827,0.0065255314111709595,0.014185491017997265,39,1.8936611413955688,2.0719900131225586
S17,window2,2,0,baseline,1,180.0,240.0,1.0,1.7784254550933838,0.03170575201511383,1.7278300523757935,1.9031089544296265,1.7764480113983154,0.05021601915359497,0.5990806221961975,0.4548220634460449,-0.0017109356145233348,0.175278902053833,0.0051390137523412704,0.008306621573865414,42,1.7833013534545898,1.9031089544296265
S17,window3,3,0,baseline,1,240.0,300.0,1.0,1.6873584985733032,0.02298390120267868,1.6446690559387207,1.7316689491271973,1.685610055923462,0.04094099998474121,0.16705840826034546,-1.2071888446807861,-0.0013072820270154087,0.08699989318847656,0.0032868734560906887,0.004420388024300337,42,1.6906970739364624,1.7316689491271973
S17,window4,4,0,baseline,1,300.0,360.0,1.0,1.6071398258209229,0.02311110682785511,1.5679049491882324,1.6536250114440918,1.6062870025634766,0.04030102491378784,0.1428411453962326,-1.161058783531189,-0.001322667122582606,0.08572006225585938,0.0029495994094759226,0.003879305673763156,42,1.6108256578445435,1.6536250114440918
S17,window5,5,0,baseline,1,360.0,420.0,1.0,1.535146713256836,0.018656829372048378,1.5000959634780884,1.5717430114746094,1.5346399545669556,0.0323047935962677,0.12582501769065857,-1.0923840999603271,-0.001061814916525244,0.071647047996521,0.0031637107022106647,0.004372048191726208,42,1.5359500646591187,1.5717430114746094
S17,window6,6,0,baseline,1,420.0,480.0,1.0,1.4837204217910767,0.010279142297804356,1.4629939794540405,1.5077730417251587,1.4819860458374023,0.015352010726928711,0.3356803357601166,-0.6489560604095459,-0.000414279083255337,0.044779062271118164,0.003328838152810931,0.004684286657720804,43,1.4860519170761108,1.5077730417251587
S17,window7,7,0,baseline,1,480.0,540.0,1.0,1.4468657970428467,0.015297462232410908,1.4192949533462524,1.4768680334091187,1.446802020072937,0.026867985725402832,0.001476141856983304,-1.1843719482421875,-0.0008621649259154977,0.05757308006286621,0.0037579392082989216,0.0050813318230211735,45,1.4493180513381958,1.4768680334091187
S17,window8,8,0,baseline,1,540.0,600.0,1.0,1.3916542530059814,0.024761464446783066,1.3425300121307373,1.4256919622421265,1.4013830423355103,0.043498992919921875,-0.6128097176551819,-1.073789358139038,-0.0011910906609823443,0.08316195011138916,0.004020219668745995,0.00565820187330246,41,1.3968582153320312,1.4256919622421265
S17,window9,9,0,baseline,1,600.0,660.0,1.0,1.3411015272140503,0.028159862384200096,1.2939130067825317,1.406501054763794,1.340611457824707,0.048937827348709106,0.3682806193828583,-1.0899089574813843,-0.0015297872868798505,0.11258804798126221,0.0045715742744505405,0.00664661917835474,40,1.343201994895935,1.406501054763794
S17,window10,10,0,baseline,1,660.0,720.0,1.0,1.277051568031311,0.014162213541567326,1.2529720067977905,1.3054280281066895,1.2760009765625,0.023028969764709473,0.06001811474561691,-1.1526970863342285,-0.0008009169076424011,0.052456021308898926,0.0033135951962321997,0.004367610905319452,44,1.2790836095809937,1.3054280281066895
S17,window11,11,0,baseline,1,720.0,780.0,1.0,1.2371554374694824,0.0089419549331069,1.2197070121765137,1.256809949874878,1.235700011253357,0.016633033752441406,0.19547532498836517,-1.0757086277008057,-0.0004594838804051161,0.03710293769836426,0.002863955218344927,0.004243466537445784,40,1.239442229270935,1.256809949874878
S17,window12,12,0,baseline,1,780.0,840.0,1.0,1.2267547845840454,0.011567849665880203,1.201796054840088,1.2478539943695068,1.223546028137207,0.02174997329711914,0.2900257706642151,-0.9616594314575195,0.0003930093552946585,0.046057939529418945,0.003329697996377945,0.005460510496050119,40,1.2309023141860962,1.2478539943695068
S17,window13,13,0,baseline,1,840.0,900.0,1.0,1.228753924369812,0.014178168959915638,1.191560983657837,1.2452960014343262,1.2337809801101685,0.008956074714660645,-1.470029354095459,0.7277073860168457,-0.000652660708284289,0.05373501777648926,0.0030833971686661243,0.0042413147166371346,45,1.231080174446106,1.2452960014343262
S17,window14,14,0,baseline,1,900.0,960.0,1.0,1.1823487281799316,0.026877498254179955,1.1531779766082764,1.3399720191955566,1.1826050281524658,0.028146982192993164,2.609837532043457,9.844656944274902,-0.0008047745354848401,0.18679404258728027,0.004646529909223318,0.008517513982951641,47,1.1851633787155151,1.3399720191955566
S17,window15,15,0,baseline,1,960.0,1020.0,1.0,1.1451342105865479,0.008751374669373035,1.1122369766235352,1.162134051322937,1.142943024635315,0.014073014259338379,-0.5097614526748657,1.1138067245483398,-0.0003455019882585054,0.049897074699401855,0.00309949042275548,0.004394990392029285,45,1.148174524307251,1.162134051322937
S17,window16,16,0,baseline,1,1020.0,1080.0,1.0,1.1317269802093506,0.0045014917850494385,1.1199140548706055,1.139104962348938,1.132707953453064,0.0063970088958740234,-0.3608536720275879,-0.5306384563446045,-0.0002122824671252001,0.01919090747833252,0.002778386464342475,0.0036981573794037104,46,1.1339595317840576,1.139104962348938
S17,window17,17,0,baseline,1,1080.0,1140.0,1.0,1.1077594757080078,0.010708675719797611,1.0879290103912354,1.1314280033111572,1.1058399677276611,0.015673071146011353,0.4677520990371704,-0.873267650604248,-0.0005817461411993141,0.043498992919921875,0.0034794986713677645,0.0041946847923099995,47,1.1104952096939087,1.1314280033111572
S17,window18,18,0,baseline,1,1140.0,1200.0,1.0,1.0787914991378784,0.016674315556883812,1.0533850193023682,1.1608550548553467,1.0796124935150146,0.02174997329711914,1.5920511484146118,5.297327995300293,-0.0005099290394013515,0.10747003555297852,0.0042504495941102505,0.007363238371908665,40,1.0842185020446777,1.1608550548553467
S17,window19,19,0,baseline,1,1200.0,1260.0,1.0,1.059840440750122,0.005085833370685577,1.0367530584335327,1.071295976638794,1.0597820281982422,0.0063970088958740234,-0.9388828873634338,2.4515132904052734,-4.033100278213977e-05,0.03454291820526123,0.0031101468484848738,0.004365743137896061,45,1.0629092454910278,1.071295976638794
S17,window20,20,1,stress,2,3540.0,3600.0,1.0,1.0436797142028809,0.013100617565214634,1.0021100044250488,1.092947006225586,1.04305100440979,0.015671998262405396,0.11320269852876663,1.2361044883728027,-0.00016711241905179307,0.09083700180053711,0.007050070445984602,0.010668954811990261,40,1.052166223526001,1.092947006225586
S17,window21,21,1,stress,2,3600.0,3660.0,1.0,1.0625028610229492,0.026247499510645866,1.0097860097885132,1.2605500221252441,1.062242031097412,0.03102603554725647,3.241114616394043,23.099260330200195,0.0005994921585435582,0.25076401233673096,0.00822244118899107,0.020742034539580345,39,1.0721815824508667,1.2605500221252441
S17,window22,22,1,stress,2,3660.0,3720.0,1.0,1.039207100868225,0.018610304221510887,1.0110650062561035,1.1377270221710205,1.034095048904419,0.023349791765213013,1.5841064453125,4.126194000244141,-0.0003491287811027804,0.126662015914917,0.0052514756098389626,0.009515716694295406,40,1.0468248128890991,1.1377270221710205
S17,window23,23,1,stress,2,3720.0,3780.0,1.0,1.0209062099456787,0.03059416078031063,0.9829189777374268,1.2400790452957153,1.0136239528656006,0.02303004264831543,3.32553768157959,16.256576538085938,-0.0007175818056954205,0.2571600675582886,0.007028686348348856,0.01707201451063156,36,1.030576229095459,1.2400790452957153
S17,window24,24,1,stress,2,3780.0,3840.0,1.0,1.0244672298431396,0.029811566695570946,0.9982709884643555,1.2477550506591797,1.0149040222167969,0.018232017755508423,4.421688079833984,25.3216552734375,0.0005310930322674825,0.24948406219482422,0.006868098862469196,0.015180561691522598,40,1.0340306758880615,1.2477550506591797
S17,window25,25,1,stress,2,3840.0,3900.0,1.0,1.000030517578125,0.008277573622763157,0.9765220284461975,1.0289770364761353,0.9982709884643555,0.014072954654693604,0.5525367259979248,0.12575674057006836,-0.0003950042093078901,0.052455008029937744,0.0031637020874768496,0.004451058804988861,41,1.0027649402618408,1.0289770364761353
S17,window26,26,1,stress,2,3900.0,3960.0,1.0,1.0133522748947144,0.03249771147966385,0.9829189777374268,1.306607961654663,1.0110650062561035,0.023028969764709473,6.031221389770508,48.35736083984375,0.000188133586464882,0.32368898391723633,0.0061775390058755875,0.02273355983197689,42,1.022123098373413,1.306607961654663
S17,window27,27,1,stress,2,3960.0,4020.0,1.0,1.0234826803207397,0.08488944172859192,0.9905949831008911,2.0167770385742188,1.0059479475021362,0.027187734842300415,8.536933898925781,85.46772003173828,0.000629130372835694,1.0261820554733276,0.014495951123535633,0.06468667089939117,43,1.049658179283142,2.0167770385742188
S17,window28,28,1,stress,2,4020.0,4080.0,1.0,1.1387479305267334,0.11006996035575867,1.0546640157699585,1.7046020030975342,1.0956050157546997,0.07036697864532471,2.7530884742736816,7.90330696105957,-0.0014107561560148434,0.6499379873275757,0.015545615926384926,0.044462598860263824,38,1.160114049911499,1.7046020030975342
S17,window29,29,1,stress,2,4080.0,4140.0,1.0,1.0839945077896118,0.017039138823747635,1.0572229623794556,1.2286629676818848,1.0828109979629517,0.01919090747833252,3.419847249984741,23.090055465698242,0.0003648020258404833,0.1714400053024292,0.004245073534548283,0.011057622730731964,45,1.0890090465545654,1.2286629676818848
S17,window30,30,1,stress,2,4140.0,4200.0,1.0,1.079362154006958,0.009172861464321613,1.0636199712753296,1.142943024635315,1.0789730548858643,0.011514902114868164,1.8396128416061401,9.591338157653809,-0.0002858038776382274,0.07932305335998535,0.0037953888531774282,0.007210636977106333,42,1.084547519683838,1.142943024635315
S17,window31,31,2,meditation,4,5280.0,5340.0,1.0,0.9283572435379028,0.0271682720631361,0.8805660009384155,1.0187419652938843,0.9355810284614563,0.050215944647789,-0.16519390046596527,-0.6121315956115723,0.0006245201549901862,0.13817596435546875,0.0035331109538674355,0.009577048011124134,41,0.9325224757194519,1.0187419652938843
S17,window32,32,2,meditation,4,5340.0,5400.0,1.0,0.9212299585342407,0.016103263944387436,0.8869630098342896,0.9586099982261658,0.9291840195655823,0.03326404094696045,-0.6319020390510559,-1.1183291673660278,-0.0007797200826019925,0.07164698839187622,0.0038007451221346855,0.005722357891499996,43,0.9249289631843567,0.9586099982261658
S17,window33,33,2,meditation,4,5400.0,5460.0,1.0,0.8933175802230835,0.008333210833370686,0.8831250071525574,0.9662860035896301,0.8920810222625732,0.005118012428283691,5.0372633934021,33.95082092285156,2.0211962569566677e-05,0.08316099643707275,0.0035384404473006725,0.006367994472384453,42,0.8969243168830872,0.9662860035896301
S17,window34,34,2,meditation,4,5460.0,5520.0,1.0,0.878444492816925,0.014010285958647728,0.8639339804649353,1.0161830186843872,0.8741689920425415,0.00895601511001587,5.3245110511779785,41.86362075805664,-0.00047443088840433455,0.1522490382194519,0.0037097730673849583,0.00796533189713955,46,0.8815674781799316,1.0161830186843872
S17,window35,35,2,meditation,4,5520.0,5580.0,1.0,0.8673511147499084,0.002838105196133256,0.8562570214271545,0.8741689920425415,0.8677719831466675,0.0038390159606933594,-0.47047552466392517,0.7687907218933105,-6.958358033121666e-05,0.017911970615386963,0.0025213409680873156,0.003321658819913864,45,0.869421124458313,0.8741689920425415
S17,window36,36,2,meditation,4,5580.0,5640.0,1.0,0.862579882144928,0.008478239178657532,0.8255519866943359,0.9074339866638184,0.8639339804649353,0.0028779953718185425,-1.0175737142562866,12.000764846801758,-0.00013042503219608546,0.08188199996948242,0.003591934684664011,0.005475085694342852,50,0.8653413653373718,0.9074339866638184
S2,window1,1,0,baseline,1,360.0,420.0,1.0,0.8888389468193054,0.15205571055412292,0.679440975189209,1.1984800100326538,0.842170000076294,0.24707597494125366,0.49603092670440674,-1.0232609510421753,-0.008576576178449617,0.5190390348434448,0.004111662041395903,0.0062479847110807896,20,0.8502527475357056,1.1984800100326538
S2,window2,2,0,baseline,1,420.0,480.0,1.0,0.5811205506324768,0.06898680329322815,0.4744279980659485,0.7204440236091614,0.5698875188827515,0.11275702714920044,0.2927270829677582,-1.103896975517273,-0.0038495659656923214,0.2460160255432129,0.003495544660836458,0.007624994032084942,23,0.5924223065376282,0.7204440236091614
S2,window3,3,0,baseline,1,480.0,540.0,1.0,0.5053095817565918,0.015220747329294682,0.4680219888687134,0.5679659843444824,0.5013359785079956,0.016658037900924683,0.4455256164073944,0.8516416549682617,8.22904120861808e-05,0.09994399547576904,0.0033558541908860207,0.008769161999225616,26,0.5116696357727051,0.5449020266532898
S2,window4,4,0,baseline,1,540.0,600.0,1.0,0.423260897397995,0.037718191742897034,0.3680090010166168,0.4935790002346039,0.42054298520088196,0.06470676511526108,0.20312191545963287,-1.1757900714874268,-0.002164619000608443,0.12556999921798706,0.0010776197304949164,0.001486452529206872,24,0.42540180683135986,0.4858910143375397
S2,window5,5,0,baseline,1,600.0,660.0,1.0,0.3454735577106476,0.02244500257074833,0.2975359857082367,0.38979199528694153,0.3462260067462921,0.028829731047153473,-0.10911370813846588,-0.5042083263397217,-0.001165537681872899,0.09225600957870483,0.0026698815636336803,0.004496234934777021,31,0.3525089919567108,0.38979199528694153
S2,window6,6,0,baseline,1,660.0,720.0,1.0,0.26213347911834717,0.022960886359214783,0.22450000047683716,0.3141930103302002,0.2590959966182709,0.03715901076793671,0.22287654876708984,-1.0456821918487549,-0.0012513772888751414,0.08969300985336304,0.0016727198380976915,0.0028382278978824615,34,0.2654646635055542,0.3141930103302002
S2,window7,7,0,baseline,1,720.0,780.0,1.0,0.19854220747947693,0.015963543206453323,0.17324699461460114,0.24756400287151337,0.1969515085220337,0.024344995617866516,0.5922370553016663,-0.19601655006408691,-0.000897465290780114,0.07431700825691223,0.0010454438161104918,0.0016930329147726297,36,0.20029695332050323,0.24756400287151337
S2,window8,8,0,baseline,1,780.0,840.0,1.0,0.1647471785545349,0.010025890544056892,0.14762000739574432,0.19246700406074524,0.16299599409103394,0.015376001596450806,0.45114651322364807,-0.5445117950439453,-0.0004899095074818235,0.044846996665000916,0.0015708698192611337,0.002322948770597577,36,0.16712477803230286,0.19246700406074524
S2,window9,9,0,baseline,1,840.0,900.0,1.0,0.14463551342487335,0.004672152455896139,0.1271190047264099,0.16427700221538544,0.14505699276924133,0.005125001072883606,-0.6845715641975403,5.8295087814331055,-0.0001817544436481263,0.037157997488975525,0.0011151088401675224,0.0017482561524957418,40,0.14614641666412354,0.16427700221538544
S2,window10,10,0,baseline,1,900.0,960.0,1.0,0.12184381484985352,0.0056137326173484325,0.11046099662780762,0.13352499902248383,0.12199299782514572,0.008969001471996307,0.0740545466542244,-1.1497620344161987,-0.0003085218291443747,0.02306400239467621,0.0011848245048895478,0.0015866950852796435,37,0.1238633468747139,0.13352499902248383
S2,window11,11,0,baseline,1,960.0,1020.0,1.0,0.10442304611206055,0.0047145565040409565,0.0963670015335083,0.11430499702692032,0.1040550023317337,0.008969001471996307,0.09059678018093109,-1.215524673461914,-0.00025992969746564616,0.017937995493412018,0.0013992928434163332,0.0017747138626873493,37,0.10561306774616241,0.11430499702692032
S2,window12,12,0,baseline,1,1020.0,1080.0,1.0,0.10569370537996292,0.009122144430875778,0.09124100208282471,0.11686799675226212,0.1117430031299591,0.01921999454498291,-0.37389546632766724,-1.7138774394989014,0.00044876230232011795,0.02562699466943741,0.0011901130201295018,0.001613849075511098,35,0.10687356442213058,0.11686799675226212
S2,window13,13,0,baseline,1,1080.0,1140.0,1.0,0.11530908942222595,0.0012120922328904271,0.1117430031299591,0.11814899742603302,0.11558700352907181,0.0012820065021514893,-0.32500216364860535,0.18303704261779785,1.8951441500156786e-05,0.006405994296073914,0.0011312884744256735,0.0015169864054769278,35,0.11668496578931808,0.11814899742603302
S2,window14,14,0,baseline,1,1140.0,1200.0,1.0,0.1040973886847496,0.006613506004214287,0.0925230011343956,0.12968100607395172,0.1014920026063919,0.005125001072883606,1.072296142578125,0.20627713203430176,-0.0001516567512395409,0.03715800493955612,0.0015279918443411589,0.002624508226290345,35,0.10588520765304565,0.12968100607395172
S2,window15,15,0,baseline,1,1200.0,1260.0,1.0,0.10042960196733475,0.0061982679180800915,0.09124100208282471,0.12968100607395172,0.09892900288105011,0.002562999725341797,2.9449121952056885,9.232902526855469,-0.0001341942937130437,0.038440003991127014,0.001469020964577794,0.0026312372647225857,36,0.10216832160949707,0.12968100607395172
S2,window16,16,0,baseline,1,1260.0,1320.0,1.0,0.0943165272474289,0.005816576071083546,0.0758650004863739,0.10918000340461731,0.09508500248193741,0.005125001072883606,-1.3441964387893677,2.6887383460998535,-0.00014668450559658487,0.03331500291824341,0.0013564727269113064,0.002080061938613653,38,0.0967039167881012,0.10918000340461731
S2,window17,17,0,baseline,1,1320.0,1380.0,1.0,0.10903584957122803,0.014556416310369968,0.074583999812603,0.13096299767494202,0.1040550023317337,0.02306399494409561,-0.453390896320343,-0.2502632141113281,0.0007554224660448142,0.05637899786233902,0.0011955652153119445,0.0018777664517983794,34,0.11238332092761993,0.13096299767494202
S2,window18,18,0,baseline,1,1380.0,1440.0,1.0,0.11980965733528137,0.014011903665959835,0.0771469995379448,0.15530799329280853,0.12199299782514572,0.0064060017466545105,-1.1137028932571411,1.3795299530029297,9.616239597843754e-05,0.07816099375486374,0.0027074473910033703,0.004491026978939772,35,0.12426308542490005,0.15530799329280853
S2,window19,19,1,stress,2,2280.0,2340.0,1.0,0.7121423482894897,0.0373259000480175,0.6268380284309387,0.7690650224685669,0.7267820239067078,0.06054328382015228,-0.6096555590629578,-0.8620879650115967,-0.002029067397637097,0.14222699403762817,0.002937926212325692,0.004005716647952795,31,0.7199617028236389,0.7690650224685669
S2,window20,20,1,stress,2,2340.0,2400.0,1.0,0.6107141971588135,0.020508702844381332,0.5794280171394348,0.6678400039672852,0.6050549745559692,0.03267371654510498,0.7825380563735962,-0.2697141170501709,-0.0005152827366873743,0.08841198682785034,0.0027609956450760365,0.0041251094080507755,24,0.6138107180595398,0.6678400039672852
S2,window21,21,1,stress,2,2400.0,2460.0,1.0,0.5937687158584595,0.020205263048410416,0.5461140275001526,0.6486200094223022,0.5935230255126953,0.023063957691192627,0.18088951706886292,0.028132200241088867,-0.001019243179678694,0.10250598192214966,0.0029486233834177256,0.004843954928219318,27,0.5919095277786255,0.6486200094223022
S2,window22,22,1,stress,2,2460.0,2520.0,1.0,0.676462709903717,0.04689767584204674,0.5525209903717041,0.7575340270996094,0.6780909895896912,0.05253499746322632,-1.011338233947754,0.9909861087799072,0.002129016528392584,0.20501303672790527,0.0054202028550207615,0.00794852152466774,30,0.6867613196372986,0.7575340270996094
S2,window23,23,1,stress,2,2520.0,2580.0,1.0,0.809876024723053,0.07824692875146866,0.7152500152587891,0.9958609938621521,0.7876445055007935,0.13998526334762573,0.4653361737728119,-1.1567097902297974,0.0038882183584480344,0.28061097860336304,0.005597118753939867,0.008499261923134327,22,0.807796835899353,0.9958609938621521
S2,window24,24,1,stress,2,2580.0,2640.0,1.0,0.9784827828407288,0.06051401048898697,0.8972679972648621,1.1599409580230713,0.9677065014839172,0.08104430139064789,0.9500162601470947,0.69429612159729,0.0017186876293205353,0.26267296075820923,0.006417069584131241,0.009627881459891796,29,0.9825747013092041,1.1599409580230713
S2,window25,25,1,stress,2,2640.0,2700.0,1.0,1.0239273309707642,0.04856511205434799,0.9472399950027466,1.1522530317306519,1.0113060474395752,0.06662899255752563,0.5271604061126709,-0.3016989231109619,-0.001485304804497632,0.20501303672790527,0.004535576794296503,0.006985113490372896,23,1.0176570415496826,1.1522530317306519
S2,window26,26,1,stress,2,2700.0,2760.0,1.0,1.0258172750473022,0.020661531016230583,0.9818360209465027,1.1074060201644897,1.0228379964828491,0.02082124352455139,0.7125263810157776,0.9065439701080322,0.00012063576853559486,0.12556999921798706,0.0033614588901400566,0.004716524388641119,18,1.0296719074249268,1.0740909576416016
S2,window27,27,1,stress,2,2760.0,2820.0,1.0,1.0856446027755737,0.030799325555562973,1.0356509685516357,1.1830040216445923,1.077934980392456,0.03363519906997681,1.045984148979187,0.7034950256347656,1.6878067171171813e-05,0.14735305309295654,0.0037850236985832453,0.00573025643825531,20,1.0924142599105835,1.1830040216445923
S2,window28,28,1,stress,2,2820.0,2880.0,1.0,1.1488624811172485,0.03674305975437164,1.0933109521865845,1.2560399770736694,1.1355949640274048,0.042604267597198486,1.1680469512939453,0.5763876438140869,0.0007376652643182659,0.16272902488708496,0.004042370244860649,0.006414554547518492,18,1.1551710367202759,1.2560399770736694
S2,window29,29,2,meditation,4,5520.0,5580.0,1.0,0.2901146113872528,0.025824742391705513,0.25525200366973877,0.3436639904975891,0.2860040068626404,0.042924486100673676,0.45563429594039917,-0.9764432907104492,-0.0014651291612933154,0.08841198682785034,0.0011312210699543357,0.001676860498264432,31,0.28918641805648804,0.3436639904975891
S2,window30,30,2,meditation,4,5580.0,5640.0,1.0,0.23635731637477875,0.010664588771760464,0.21937400102615356,0.2578139901161194,0.23603199422359467,0.01825924962759018,0.18272070586681366,-1.2148308753967285,-0.0006114627460147829,0.03843998908996582,0.000884611567016691,0.0012179705081507564,36,0.23770445585250854,0.2578139901161194
S2,window31,31,2,meditation,4,5640.0,5700.0,1.0,0.20708973705768585,0.007011248730123043,0.19374799728393555,0.21937400102615356,0.20656099915504456,0.011532008647918701,0.16655059158802032,-1.1263617277145386,-0.00039870410437890406,0.025626003742218018,0.0010400210740044713,0.001394073129631579,40,0.2090596705675125,0.21937400102615356
S2,window32,32,2,meditation,4,5700.0,5760.0,1.0,0.1864604353904724,0.0043180035427212715,0.17837199568748474,0.19631099700927734,0.18605999648571014,0.006406992673873901,0.3445146977901459,-0.7273404598236084,-0.00024097705182210387,0.017939001321792603,0.0008630885276943445,0.001224490231834352,36,0.18773280084133148,0.19631099700927734
S2,window33,33,2,meditation,4,5760.0,5820.0,1.0,0.1764286905527115,0.00228301202878356,0.17196500301361084,0.18093499541282654,0.17709100246429443,0.0038439929485321045,-0.08101149648427963,-0.9025733470916748,-0.0001161559575170997,0.008969992399215698,0.0009167413809336722,0.0012092951219528913,38,0.1771581470966339,0.18093499541282654
S3,window1,1,0,baseline,1,360.0,420.0,1.0,6.0098876953125,0.3612740635871887,5.416863918304443,7.186026096343994,6.0206708908081055,0.3720930814743042,0.8698061108589172,1.489767074584961,-0.019182779229381275,1.7691621780395508,0.021598083898425102,0.061608776450157166,16,6.306804180145264,7.186026096343994
S3,window2,2,0,baseline,1,420.0,480.0,1.0,4.906224727630615,0.2966887652873993,4.379378795623779,5.492457866668701,4.854724884033203,0.5262644290924072,0.4496406018733978,-0.9827535152435303,-0.015407035012992691,1.1130790710449219,0.031126361340284348,0.05038762092590332,30,4.9859466552734375,5.492457866668701
S3,window3,3,0,baseline,1,480.0,540.0,1.0,3.823543071746826,0.35778382420539856,3.2438440322875977,4.400448799133301,3.8914380073547363,0.6797391772270203,-0.005279996898025274,-1.3263061046600342,-0.020470802151773337,1.1566047668457031,0.008734435774385929,0.02195228450000286,9,4.046817302703857,4.372262001037598
S3,window4,4,0,baseline,1,540.0,600.0,1.0,2.8274874687194824,0.22493590414524078,2.477215051651001,3.2387189865112305,2.8032937049865723,0.38801872730255127,0.19272378087043762,-1.2641372680664062,-0.012828825480383442,0.7615039348602295,0.005702165421098471,0.01064947061240673,7,2.856105327606201,3.0157809257507324
S3,window5,5,0,baseline,1,600.0,660.0,1.0,2.314499616622925,0.09429358690977097,2.05656099319458,2.5536880493164062,2.312171459197998,0.11563241481781006,-0.2501990497112274,0.1949448585510254,-0.004755558058438161,0.49712705612182617,0.007728723343461752,0.017521588131785393,20,2.328827381134033,2.5536880493164062
S3,window6,6,0,baseline,1,660.0,720.0,1.0,2.0677504539489746,0.03406153619289398,1.9873729944229126,2.187248945236206,2.068092107772827,0.03363257646560669,0.43489721417427063,1.4613847732543945,1.7613291225055812e-05,0.19987595081329346,0.006583197042346001,0.018116813153028488,28,2.089873790740967,2.187248945236206
S3,window7,7,0,baseline,1,720.0,780.0,1.0,1.8506978750228882,0.12557336688041687,1.6560139656066895,2.0578420162200928,1.8622959852218628,0.24743667244911194,0.12699447572231293,-1.3403900861740112,-0.007085777086115467,0.4018280506134033,0.004613691009581089,0.011196530424058437,23,1.8974586725234985,2.0578420162200928
S3,window8,8,0,baseline,1,780.0,840.0,1.0,1.4757333993911743,0.12082669138908386,1.3034700155258179,1.6572959423065186,1.4405640363693237,0.2404339611530304,0.14879384636878967,-1.611878752708435,-0.006710003929197464,0.3538259267807007,0.005343978758901358,0.011241128668189049,26,1.4890068769454956,1.6572959423065186
S3,window9,9,0,baseline,1,840.0,900.0,1.0,1.2230663299560547,0.07069163769483566,1.0971879959106445,1.3700950145721436,1.2118605375289917,0.11403095722198486,-0.0947752445936203,-1.159360647201538,-0.003845033552247655,0.272907018661499,0.005580694880336523,0.011304951272904873,26,1.2435468435287476,1.3700950145721436
S3,window10,10,0,baseline,1,900.0,960.0,1.0,1.0192444324493408,0.04402819648385048,0.9202759861946106,1.0971879959106445,1.0138574838638306,0.07470749318599701,-0.01108385156840086,-1.0934689044952393,-0.0021080636183821006,0.17691200971603394,0.009107730351388454,0.016715962439775467,27,1.027722954750061,1.0971879959106445
S3,window11,11,0,baseline,1,960.0,1020.0,1.0,0.8807283639907837,0.07483933120965958,0.7908700108528137,1.0253390073776245,0.8606979846954346,0.07879751920700073,0.9540954828262329,-0.4208037853240967,-0.0038807972763500957,0.2344689965248108,0.0019888696260750294,0.0066296011209487915,22,0.8804409503936768,1.0253390073776245
S3,window12,12,0,baseline,1,1020.0,1080.0,1.0,0.7292519807815552,0.03222128003835678,0.6627439856529236,0.7895879745483398,0.7280880212783813,0.060218989849090576,0.14810635149478912,-1.1966785192489624,-0.0018434948002406912,0.12684398889541626,0.001238364609889686,0.0017684856429696083,30,0.7287715673446655,0.7895879745483398
S3,window13,13,0,baseline,1,1080.0,1140.0,1.0,0.6091931462287903,0.030677109956741333,0.555118978023529,0.6858069896697998,0.6102129817008972,0.04900825023651123,0.027504198253154755,-0.8981032371520996,-0.0017185998389504776,0.13068801164627075,0.001624330529011786,0.002819134620949626,33,0.6095139980316162,0.6640250086784363
S3,window14,14,0,baseline,1,1140.0,1200.0,1.0,0.5885757207870483,0.01291892770677805,0.5615249872207642,0.6499320268630981,0.5897129774093628,0.01665598154067993,1.3128864765167236,4.288711071014404,-0.0005537657765133987,0.08840703964233398,0.00174234202131629,0.004184646997600794,36,0.5926312804222107,0.6499320268630981
S3,window15,15,0,baseline,1,1200.0,1260.0,1.0,0.5183756947517395,0.032959796488285065,0.46927499771118164,0.5692129731178284,0.5102059841156006,0.0654129683971405,0.18986311554908752,-1.5343828201293945,-0.0017180494945884036,0.09993797540664673,0.002036857418715954,0.005364728160202503,25,0.5275213718414307,0.5692129731178284
S3,window16,16,0,baseline,1,1260.0,1320.0,1.0,0.4351297914981842,0.01980944350361824,0.40642398595809937,0.47048699855804443,0.43140852451324463,0.03491450101137161,0.24890998005867004,-1.2966222763061523,-0.0011340763633492397,0.06406301259994507,0.0008255944121629,0.001199709833599627,31,0.43399205803871155,0.4679250121116638
S3,window17,17,0,baseline,1,1320.0,1380.0,1.0,0.399537593126297,0.007972407154738903,0.38464298844337463,0.41154900193214417,0.40129899978637695,0.014092981815338135,-0.39230725169181824,-1.1835968494415283,-0.00042427094180885847,0.02690601348876953,0.000948858680203557,0.0012342622503638268,35,0.3999814987182617,0.41154900193214417
S3,window18,18,0,baseline,1,1380.0,1440.0,1.0,0.37402477860450745,0.005489210598170757,0.3615800142288208,0.38592401146888733,0.3731119930744171,0.008969008922576904,0.43480348587036133,-0.8367679119110107,-0.0002728307803792029,0.02434399724006653,0.0009542288607917726,0.0014147645561024547,36,0.3753540515899658,0.38592401146888733
S3,window19,19,1,stress,2,2280.0,2340.0,1.0,0.5555309057235718,0.1693168729543686,0.3385179936885834,1.0573010444641113,0.5076429843902588,0.2655402421951294,0.930098295211792,-0.25260448455810547,0.008972239911356518,0.7187830209732056,0.007569309789687395,0.013054397888481617,28,0.5530363917350769,1.0573010444641113
S3,window20,20,1,stress,2,2340.0,2400.0,1.0,2.7464396953582764,0.8532662391662598,0.956151008605957,4.330266952514648,2.844733476638794,1.1115677952766418,-0.43722617626190186,-0.48841071128845215,0.042794043017658115,3.3741159439086914,0.04793183505535126,0.06735392659902573,20,2.8767502307891846,4.330266952514648
S3,window21,21,1,stress,2,2400.0,2460.0,1.0,3.877963066101074,0.3656640350818634,3.1131560802459717,5.059724807739258,3.8972034454345703,0.45574623346328735,0.4656222462654114,0.8981223106384277,0.011759644587107529,1.9465687274932861,0.04541470482945442,0.06895266473293304,19,4.030765533447266,5.059724807739258
S3,window22,22,1,stress,2,2460.0,2520.0,1.0,4.37736701965332,0.421887069940567,3.776766061782837,5.509115219116211,4.27182674407959,0.5780212879180908,0.7028937339782715,-0.24187302589416504,0.013846355834461137,1.732349157333374,0.05439959466457367,0.07492425292730331,19,4.553291320800781,5.509115219116211
S3,window23,23,1,stress,2,2520.0,2580.0,1.0,4.7146782875061035,0.2608692944049835,4.297948837280273,5.555240154266357,4.683036804199219,0.37124311923980713,0.7698361873626709,0.25078535079956055,-0.010877789110584311,1.257291316986084,0.027761703357100487,0.04400492459535599,17,4.860592365264893,5.555240154266357
S3,window24,24,1,stress,2,2580.0,2640.0,1.0,3.737074851989746,0.32646700739860535,3.192594051361084,4.358168125152588,3.719749927520752,0.53397536277771,0.18368420004844666,-1.1381319761276245,-0.01865711334142881,1.165574073791504,0.007833798415958881,0.010046676732599735,11,3.8853232860565186,4.358168125152588
S3,window25,25,1,stress,2,2640.0,2700.0,1.0,2.8161704540252686,0.19518397748470306,2.500277042388916,3.190031051635742,2.7776689529418945,0.35118263959884644,0.23810800909996033,-1.1733663082122803,-0.011191464432014483,0.6897540092468262,0.0040724328719079494,0.004043197259306908,19,2.8072638511657715,3.0657498836517334
S3,window26,26,1,stress,2,2700.0,2760.0,1.0,2.321366310119629,0.11042281240224838,2.125749111175537,2.530625104904175,2.3153738975524902,0.19443023204803467,0.005920571740716696,-1.1323785781860352,-0.006284840631121559,0.4048759937286377,0.0037938400637358427,0.005236364901065826,19,2.31851863861084,2.530625104904175
S3,window27,27,1,stress,2,2760.0,2820.0,1.0,1.9604451656341553,0.09314947575330734,1.798233985900879,2.124466896057129,1.9566229581832886,0.17280346155166626,0.04747460409998894,-1.1318203210830688,-0.005359691458755597,0.32623291015625,0.002746821381151676,0.004399030469357967,23,1.957802653312683,2.1219050884246826
S3,window28,28,1,stress,2,2820.0,2880.0,1.0,1.652058482170105,0.07977648824453354,1.5099509954452515,1.798233985900879,1.6496080160140991,0.11883598566055298,-0.01985316537320614,-1.041736125946045,-0.004587606507938471,0.28828299045562744,0.002101442776620388,0.0026050920132547617,25,1.6541694402694702,1.7841399908065796
S3,window29,29,2,meditation,4,5820.0,5880.0,1.0,0.4035308063030243,0.004589973483234644,0.38720598816871643,0.41411200165748596,0.40129899978637695,0.0012820065021514893,0.9778702259063721,0.5137813091278076,-0.00017177437359236245,0.02690601348876953,0.0009651427390053868,0.001705842325463891,36,0.4052145183086395,0.41411200165748596
S3,window30,30,2,meditation,4,5880.0,5940.0,1.0,0.3841038644313812,0.019541116431355476,0.356454998254776,0.40386199951171875,0.40001800656318665,0.03843700885772705,-0.2700554132461548,-1.8392374515533447,-0.0010155377196517286,0.04740700125694275,0.001013339962810278,0.001496215001679957,34,0.38554757833480835,0.40386199951171875
S3,window31,31,2,meditation,4,5940.0,6000.0,1.0,0.3513784408569336,0.0038086019922047853,0.3436430096626282,0.3602989912033081,0.3513300120830536,0.0051250159740448,0.36238089203834534,-0.7728335857391357,-0.00021033598348314963,0.01665598154067993,0.0009650065330788493,0.0013404645724222064,37,0.3524731695652008,0.3602989912033081
S3,window32,32,2,meditation,4,6000.0,6060.0,1.0,0.3420626223087311,0.0018288055434823036,0.3385179936885834,0.3462049961090088,0.3423619866371155,0.002562999725341797,0.22526797652244568,-0.5586292743682861,-8.623649460190832e-05,0.007687002420425415,0.0009596095769666135,0.0012756282230839133,36,0.3431090712547302,0.3462049961090088
S3,window33,33,2,meditation,4,6060.0,6120.0,1.0,0.33787187933921814,0.0020493273623287678,0.33339300751686096,0.3423619866371155,0.3378775119781494,0.0038439929485321045,-0.001781534287147224,-0.886458158493042,-0.0001033843016880696,0.008968979120254517,0.0008577619446441531,0.0011719060130417347,35,0.339030385017395,0.3423619866371155
S3,window34,34,2,meditation,4,6120.0,6180.0,1.0,0.3322557508945465,0.002079086611047387,0.32698699831962585,0.3359549939632416,0.33211201429367065,0.002562999725341797,-0.059295766055583954,-0.6770124435424805,-0.00010464455341949035,0.008967995643615723,0.0009971000254154205,0.0013152167666703463,40,0.33329668641090393,0.3359549939632416
S4,window1,1,0,baseline,1,300.0,360.0,1.0,0.19330981373786926,0.007669377140700817,0.17551299929618835,0.21132999658584595,0.19278249144554138,0.010552752763032913,0.14452625811100006,-0.7168781757354736,-0.00042227257957193576,0.03581699728965759,0.0014183396706357598,0.0021758433431386948,40,0.19502073526382446,0.21132999658584595
S4,window2,2,0,baseline,1,360.0,420.0,1.0,0.17566798627376556,0.004501046147197485,0.164001002907753,0.18318800628185272,0.17679299414157867,0.0089540034532547,-0.30409300327301025,-1.1169556379318237,-0.0002402650689385018,0.01918700337409973,0.0013862291816622019,0.0021038330160081387,39,0.17685815691947937,0.18318800628185272
S4,window3,3,0,baseline,1,420.0,480.0,1.0,0.16049906611442566,0.003899523988366127,0.14865100383758545,0.1691170036792755,0.1601630002260208,0.006395995616912842,0.23034077882766724,-0.5552201271057129,-0.00020635199630841298,0.020465999841690063,0.0012416871031746268,0.001946767675690353,38,0.1618126928806305,0.1691170036792755
S4,window4,4,0,baseline,1,480.0,540.0,1.0,0.15098528563976288,0.0032451017759740353,0.14097599685192108,0.15888400375843048,0.1512089967727661,0.005116000771522522,-0.13257403671741486,-0.14822983741760254,-0.00016554743082573597,0.0179080069065094,0.0014290211256593466,0.0021237661130726337,42,0.15190966427326202,0.15888400375843048
S4,window5,5,0,baseline,1,540.0,600.0,1.0,0.14266520738601685,0.002452598651871085,0.13458000123500824,0.14993000030517578,0.1422549933195114,0.00383700430393219,-0.08528386056423187,0.08347868919372559,-0.0001127274182596622,0.015349999070167542,0.0012899498688057065,0.0020114092621952295,41,0.14387726783752441,0.14993000030517578
S4,window6,6,0,baseline,1,600.0,660.0,1.0,0.13723932206630707,0.0023287716321647167,0.1281840056180954,0.1422549933195114,0.1371379941701889,0.002558007836341858,-0.6724833250045776,1.7228918075561523,-9.817047624360857e-05,0.014070987701416016,0.001305890385992825,0.0022015543654561043,39,0.1384500414133072,0.1422549933195114
S4,window7,7,0,baseline,1,660.0,720.0,1.0,0.12850375473499298,0.002712249057367444,0.1192300021648407,0.1371379941701889,0.1281840056180954,0.002558007836341858,0.7566437721252441,2.4848122596740723,-5.062181135801459e-05,0.017907992005348206,0.0014717750018462539,0.002246180782094598,38,0.12983334064483643,0.1371379941701889
S4,window8,8,0,baseline,1,720.0,780.0,1.0,0.126068115234375,0.001929949619807303,0.11795099824666977,0.12946300208568573,0.12690499424934387,0.001278996467590332,-1.5308066606521606,3.7003116607666016,-4.719014055166108e-05,0.01151200383901596,0.0015682472148910165,0.0025029212702065706,37,0.12759633362293243,0.12946300208568573
S4,window9,9,0,baseline,1,780.0,840.0,1.0,0.1251886636018753,0.0015536685241386294,0.11667100340127945,0.1281840056180954,0.12562599778175354,0.0012799948453903198,-2.1850390434265137,7.543432235717773,-1.063091418565478e-05,0.011513002216815948,0.0014560390263795853,0.002201857976615429,38,0.12650111317634583,0.1281840056180954
S4,window10,10,0,baseline,1,840.0,900.0,1.0,0.12011455744504929,0.004057919140905142,0.10771699994802475,0.12690499424934387,0.1192300021648407,0.007674999535083771,-0.16040989756584167,-0.7159843444824219,-0.00012543375489167442,0.019187994301319122,0.0012257398338988423,0.001902993069961667,39,0.12096824496984482,0.12690499424934387
S4,window11,11,0,baseline,1,900.0,960.0,1.0,0.12063154578208923,0.0017646594205871224,0.11283399909734726,0.12306699901819229,0.12050899863243103,0.001279003918170929,-1.6483670473098755,4.542133808135986,3.4758410299463006e-05,0.010232999920845032,0.0014503306010738015,0.0023503941483795643,38,0.12178798764944077,0.12306699901819229
S4,window12,12,0,baseline,1,960.0,1020.0,1.0,0.12105787545442581,0.00160271767526865,0.11411300301551819,0.12434600293636322,0.12178800255060196,0.001279003918170929,-1.6506574153900146,4.632236480712891,-2.6489184641355845e-05,0.010232999920845032,0.0013807618524879217,0.0021512515377253294,39,0.12234550714492798,0.12434600293636322
S4,window13,13,0,baseline,1,1020.0,1080.0,1.0,0.12098328024148941,0.0015578394522890449,0.11411300301551819,0.12434600293636322,0.12178800255060196,0.001279003918170929,-1.9269673824310303,5.974163055419922,-2.1736919023599917e-05,0.010232999920845032,0.0013432851992547512,0.0020485231652855873,37,0.12227194756269455,0.12434600293636322
S4,window14,14,0,baseline,1,1080.0,1140.0,1.0,0.12100990861654282,0.0016537797637283802,0.11411300301551819,0.12434600293636322,0.12178800255060196,0.001279003918170929,-1.4267489910125732,3.404714584350586,1.7932026724109308e-05,0.010232999920845032,0.0014717531157657504,0.002341713523492217,39,0.12244388461112976,0.12434600293636322
S4,window15,15,0,baseline,1,1140.0,1200.0,1.0,0.11972010880708694,0.003278624964877963,0.11155500262975693,0.1320209950208664,0.12050899863243103,0.002558000385761261,-1.0528655052185059,1.1561684608459473,-9.732050925152308e-05,0.020465992391109467,0.0013807577779516578,0.0022227985318750143,39,0.12103358656167984,0.1320209950208664
S4,window16,16,0,baseline,1,1200.0,1260.0,1.0,0.1069442555308342,0.002955674659460783,0.09876299649477005,0.11667100340127945,0.10643800348043442,0.003836996853351593,0.3398669958114624,0.9471676349639893,-3.0610788006958974e-05,0.0179080069065094,0.0015038993442431092,0.0022522949147969484,36,0.1087474599480629,0.11667100340127945
S4,window17,17,0,baseline,1,1260.0,1320.0,1.0,0.1148218885064125,0.00528666703030467,0.10388000309467316,0.1281840056180954,0.11411300301551819,0.006715746596455574,0.5887614488601685,-0.20462775230407715,-1.9640347555955426e-05,0.02430400252342224,0.0013272847281768918,0.002096201991662383,34,0.11606935411691666,0.1281840056180954
S4,window18,18,0,baseline,1,1320.0,1380.0,1.0,0.11598370224237442,0.0017895535565912724,0.10771699994802475,0.1192300021648407,0.11667100340127945,0.001279003918170929,-1.4613515138626099,4.654476165771484,4.9995339224740845e-05,0.011513002216815948,0.001348799210973084,0.0021320844534784555,38,0.11727724224328995,0.1192300021648407
S4,window19,19,0,baseline,1,1380.0,1440.0,1.0,0.12003998458385468,0.0020620531868189573,0.11155500262975693,0.12306699901819229,0.12050899863243103,0.002558000385761261,-1.2912383079528809,2.802656650543213,6.740813769181382e-05,0.011511996388435364,0.0014557157410308719,0.0022839875891804695,39,0.12142724543809891,0.12306699901819229
S4,window20,20,1,stress,2,3660.0,3720.0,1.0,2.2423360347747803,0.2695663571357727,1.9053239822387695,2.9962449073791504,2.158979892730713,0.4420856237411499,0.8170604109764099,-0.3579530715942383,0.01264685243800186,1.0909209251403809,0.024394681677222252,0.036669403314590454,24,2.266190528869629,2.9962449073791504
S4,window21,21,1,stress,2,3720.0,3780.0,1.0,2.5028750896453857,0.195203959941864,2.1171469688415527,2.9924070835113525,2.518807888031006,0.2475196123123169,0.15822838246822357,-0.2274789810180664,0.0073958801439639125,0.8752601146697998,0.02268925867974758,0.033426906913518906,23,2.541538953781128,2.9924070835113525
S4,window22,22,1,stress,2,3780.0,3840.0,1.0,2.615987539291382,0.14871171116828918,2.4100780487060547,3.1113710403442383,2.570279598236084,0.19091659784317017,1.0768901109695435,0.8079848289489746,0.002121332913285832,0.7012929916381836,0.01649007759988308,0.026037901639938354,21,2.608704090118408,3.1113710403442383
S4,window23,23,1,stress,2,3840.0,3900.0,1.0,2.4389657974243164,0.08182205259799957,2.2847189903259277,2.6355180740356445,2.4382200241088867,0.11672472953796387,0.2214825302362442,-0.5715532302856445,-0.00296863343587805,0.3507990837097168,0.010328452102839947,0.014676534570753574,21,2.47820782661438,2.6355180740356445
S4,window24,24,1,stress,2,3900.0,3960.0,1.0,2.4498281478881836,0.17038807272911072,2.2130849361419678,2.8961639404296875,2.445894479751587,0.28685474395751953,0.44392481446266174,-0.6652047634124756,0.007455766666481691,0.6830790042877197,0.016040552407503128,0.02266068011522293,19,2.461446762084961,2.8961639404296875
S4,window25,25,1,stress,2,3960.0,4020.0,1.0,2.7457690238952637,0.14630524814128876,2.5178329944610596,3.1190450191497803,2.7241148948669434,0.20468264818191528,0.7123801112174988,-0.13877248764038086,-0.0027752818580128913,0.6012120246887207,0.018450282514095306,0.024291446432471275,21,2.772102117538452,3.1190450191497803
S4,window26,26,1,stress,2,4020.0,4080.0,1.0,2.413259267807007,0.15001465380191803,2.138892889022827,2.7145209312438965,2.3992044925689697,0.23217058181762695,-0.018304739147424698,-0.9998877048492432,-0.008110263635347297,0.5756280422210693,0.009611239656805992,0.012615272775292397,20,2.4213497638702393,2.7145209312438965
S4,window27,27,1,stress,2,4080.0,4140.0,1.0,2.1934869289398193,0.11632590740919113,2.0314419269561768,2.672308921813965,2.1619179248809814,0.0952986478805542,2.0634171962738037,4.6533918380737305,1.8447704510875756e-05,0.6408669948577881,0.010923841968178749,0.01751629449427128,22,2.2011656761169434,2.672308921813965
S4,window28,28,1,stress,2,4140.0,4200.0,1.0,2.0922272205352783,0.08898968249559402,1.961087942123413,2.3888518810272217,2.0860676765441895,0.09849613904953003,0.9658961296081543,1.1964821815490723,0.0015771413675627081,0.4277639389038086,0.010492431931197643,0.01637069694697857,27,2.08738112449646,2.3888518810272217
S4,window29,29,2,meditation,4,5700.0,5760.0,1.0,0.1859600692987442,0.0015651818830519915,0.17935100197792053,0.18958400189876556,0.18574699759483337,0.001278996467590332,-0.7981818318367004,1.4166932106018066,2.7422391443601328e-05,0.010232999920845032,0.0012577153975144029,0.0017841776134446263,40,0.1870899498462677,0.18958400189876556
S4,window30,30,2,meditation,4,5760.0,5820.0,1.0,0.1918708235025406,0.0034602347295731306,0.17935100197792053,0.19725899398326874,0.19278249144554138,0.00511699914932251,-0.628417432308197,-0.35726308822631836,0.00017671289134599393,0.017907992005348206,0.0011720838956534863,0.0018480992875993252,38,0.19291679561138153,0.19725899398326874
S4,window31,31,2,meditation,4,5820.0,5880.0,1.0,0.18698325753211975,0.006228306796401739,0.17423400282859802,0.20109699666500092,0.18574699759483337,0.007675006985664368,0.6574186682701111,-0.5613839626312256,-0.0003161222306607361,0.026862993836402893,0.0012952121905982494,0.0021020311396569014,32,0.18838495016098022,0.20109699666500092
S4,window32,32,2,meditation,4,5880.0,5940.0,1.0,0.18254336714744568,0.0017241457244381309,0.17551299929618835,0.1870259940624237,0.18318800628185272,0.0012790113687515259,-1.0116009712219238,1.8586864471435547,3.8114000651799356e-05,0.011512994766235352,0.0015789518365636468,0.0022855487186461687,38,0.18396268784999847,0.1870259940624237
S4,window33,33,2,meditation,4,5940.0,6000.0,1.0,0.18892863392829895,0.0032779453322291374,0.18062999844551086,0.19470100104808807,0.18958400189876556,0.00383700430393219,-0.591654360294342,-0.2969026565551758,0.00016142273238864947,0.01407100260257721,0.0013006279477849603,0.0019699507392942905,36,0.1906147599220276,0.19470100104808807
S4,window34,34,2,meditation,4,6000.0,6060.0,1.0,0.19553767144680023,0.0021786384750157595,0.18830500543117523,0.20109699666500092,0.1959799975156784,0.003836989402770996,-0.29739874601364136,0.07083964347839355,8.401978209204241e-05,0.012791991233825684,0.0012790968175977468,0.0019596449565142393,41,0.19694717228412628,0.20109699666500092
S5,window1,1,0,baseline,1,300.0,360.0,1.0,1.1296801567077637,0.125420480966568,0.6960809826850891,1.361132025718689,1.1353979110717773,0.18097048997879028,-0.8157428503036499,1.3759369850158691,-0.003899516980514211,0.6650510430335999,0.021501226350665092,0.051195401698350906,34,1.174368143081665,1.361132025718689
S5,window2,2,0,baseline,1,360.0,420.0,1.0,1.055624008178711,0.04444153979420662,0.8610649704933167,1.156501054763794,1.0522665977478027,0.0722602903842926,-0.36198890209198,1.0368804931640625,-0.0011078444532488117,0.2954360842704773,0.007807459216564894,0.022331764921545982,35,1.0652570724487305,1.156501054763794
S5,window3,3,0,baseline,1,420.0,480.0,1.0,0.9678138494491577,0.025875046849250793,0.8597859740257263,1.0004689693450928,0.9723330140113831,0.039647042751312256,-1.3208905458450317,2.415463924407959,-0.00031309248281457316,0.14068299531936646,0.004147139377892017,0.0075122579000890255,39,0.9746281504631042,1.0004689693450928
S5,window4,4,0,baseline,1,480.0,540.0,1.0,0.8928037285804749,0.024922465905547142,0.7779330015182495,0.9416379928588867,0.8904799818992615,0.03229275345802307,-0.7434697151184082,2.606593608856201,-0.001286463094015513,0.1637049913406372,0.0032000530045479536,0.005473707802593708,41,0.8982786536216736,0.939079999923706
S5,window5,5,0,baseline,1,540.0,600.0,1.0,0.8245240449905396,0.02485433593392372,0.7817699909210205,0.8725749850273132,0.8182194828987122,0.038368046283721924,0.3167189955711365,-1.010481357574463,-0.0013943442476857598,0.09080499410629272,0.002820044057443738,0.0040239193476736546,40,0.8288670778274536,0.8687379956245422
S5,window6,6,0,baseline,1,600.0,660.0,1.0,0.7745278477668762,0.008375868201255798,0.7536330223083496,0.7932810187339783,0.7779330015182495,0.01023101806640625,-0.9074345231056213,-0.15050005912780762,-4.7955152944936966e-05,0.03964799642562866,0.002301083877682686,0.0033644097857177258,43,0.7763270735740662,0.7932810187339783
S5,window7,7,0,baseline,1,660.0,720.0,1.0,0.7718581557273865,0.005054636858403683,0.7600280046463013,0.7868859767913818,0.772177517414093,0.006394028663635254,0.4037344455718994,0.19652032852172852,-0.00021764855990900788,0.026857972145080566,0.0021136750001460314,0.002749792532995343,44,0.7737765908241272,0.7868859767913818
S5,window8,8,0,baseline,1,720.0,780.0,1.0,0.7737924456596375,0.0037499484606087208,0.7600280046463013,0.7792119979858398,0.7753750085830688,0.003836989402770996,-1.2672351598739624,1.4304208755493164,0.0001022897718035397,0.019183993339538574,0.0022796099074184895,0.0030685372184962034,46,0.7757920622825623,0.7792119979858398
S5,window9,9,0,baseline,1,780.0,840.0,1.0,0.7697800993919373,0.002423937199637294,0.7600280046463013,0.7766540050506592,0.7702599763870239,0.00383603572845459,-0.2434561401605606,1.3123373985290527,-7.713956322430001e-05,0.01662600040435791,0.0019102400401607156,0.0026535389479249716,41,0.7715696096420288,0.7766540050506592
S5,window10,10,0,baseline,1,840.0,900.0,1.0,0.7567826509475708,0.021591050550341606,0.705033004283905,0.7817699909210205,0.7651439905166626,0.014388710260391235,-1.2834142446517944,0.2103731632232666,0.0009143639378469902,0.07673698663711548,0.0023438846692442894,0.003444846486672759,43,0.7598496079444885,0.7817699909210205
S5,window11,11,0,baseline,1,900.0,960.0,1.0,0.7758176922798157,0.014011764898896217,0.7101489901542664,0.7907230257987976,0.7830489873886108,0.025898724794387817,-1.2791544198989868,1.3359746932983398,-0.0005401011549078568,0.08057403564453125,0.002648943569511175,0.004874091595411301,40,0.7785088419914246,0.7907230257987976
S5,window12,12,0,baseline,1,960.0,1020.0,1.0,0.7581522464752197,0.012800479307770729,0.734449028968811,0.7856069803237915,0.7561910152435303,0.019183993339538574,0.07343502342700958,-1.009027361869812,-0.0004240892681989156,0.05115795135498047,0.0024829814210534096,0.003886622143909335,41,0.7604647874832153,0.7856069803237915
S5,window13,13,0,baseline,1,1020.0,1080.0,1.0,0.7431514263153076,0.006633214186877012,0.7267749905586243,0.7638649940490723,0.7434020042419434,0.00639498233795166,0.36303552985191345,0.4455533027648926,0.00020773539859973524,0.037090003490448,0.002627504523843527,0.003878809744492173,41,0.7459285259246826,0.7638649940490723
S5,window14,14,0,baseline,1,1080.0,1140.0,1.0,0.7694495320320129,0.012455162592232227,0.6858490109443665,0.7958379983901978,0.7702599763870239,0.017904996871948242,-1.116404414176941,7.174466133117676,-0.0002246383795997112,0.1099889874458313,0.003034161636605859,0.006518743932247162,42,0.7718125581741333,0.7958379983901978
S5,window15,15,0,baseline,1,1140.0,1200.0,1.0,0.7305857539176941,0.012823124416172504,0.7037540078163147,0.7587490081787109,0.7267749905586243,0.01662600040435791,0.6475490927696228,-0.5081915855407715,-0.0006393529391561513,0.05499500036239624,0.0020869614090770483,0.002962740371003747,40,0.7329464554786682,0.7587490081787109
S5,window16,16,0,baseline,1,1200.0,1260.0,1.0,0.6822140216827393,0.08424650877714157,0.49393901228904724,0.7817010283470154,0.7037540078163147,0.09617075324058533,-0.937076985836029,-0.41660261154174805,0.0012161328994093044,0.28776201605796814,0.005800412502139807,0.012980319559574127,37,0.6922374367713928,0.7817010283470154
S5,window17,17,0,baseline,1,1260.0,1320.0,1.0,0.7874404788017273,0.0043277801014482975,0.7701910138130188,0.7970479726791382,0.788096010684967,0.005115985870361328,-0.764618456363678,0.7806799411773682,0.00020149081319869835,0.026856958866119385,0.0023599592968821526,0.003159805666655302,43,0.7897912859916687,0.7970479726791382
S5,window18,18,0,baseline,1,1320.0,1380.0,1.0,0.7850317358970642,0.007620897144079208,0.7394959926605225,0.7944909930229187,0.7855380177497864,0.005115985870361328,-3.1398684978485107,12.53812313079834,-0.0002657667703993982,0.05499500036239624,0.0028308904729783535,0.0041503566317260265,42,0.7875174283981323,0.7944909930229187
