subject,window,window_index,status,status_name,phase,t_start,t_end,major_ratio,stress_ratio,rest_ratio,covered_ratio,bvp_missing_ratio,acc_missing_ratio,missing_flag,flatline_flag,clipping_ratio,clipping_flag,n_peaks,peak_sparse_flag,ibi_pass_ratio,valid_beat_ratio,ibi_plausibility,ibi_mean_sec,median_template_corr,notch_foot_peak_detectability,acc_diff_mean,acc_diff_exceed_ratio,acc_diff_flag,psd_corr_x,psd_corr_y,psd_corr_z,psd_corr_mag,psd_corr_max,psd_corr_flag,motion_score_raw,motion_score,SQI_stress_basic,SQI_stress_morph,hard_reject,motion_threshold_subject_p80,qc_relaxed_pass,TPV0,TPV1,TPV2,TPV3,TPV4,TPV5,TPV6,TPV7,TPV8,TPV9,TPV10,TPV11,TPV12,TPV13,TPV14,TPV15,TPV16,TPV17,TPV18,TPV19,TPV20,TPV21,TPV22,TPV23,TPV24,TPV25,TPV26,TPV27,TPV28,TPV29,TPV30,TPV31,TPV32
S01,window1,1,0,normal,Baseline,2013-02-20 18:01:30,2013-02-20 18:02:30,1.0,0.0,1.0,1.0,0.0,0.0,0,0,0.021614583333333333,0,73,0,0.9861111111111112,0.4722222222222222,0.9861111111111112,0.8244357638888888,0.6825143471185542,0.7734742164611816,0.9951193332672119,0.7384054194893174,1,0.7878832905796458,0.7968963441586661,0.7692857880171012,0.8684932253165583,0.8684932253165583,0,1.2912827730178833,1.0,0.4908654152466775,-0.29711397021617714,1,1.0,0,0.04435546323657036,0.11535380035638809,0.05178777128458023,0.13161779940128326,0.007432309910655022,0.020799320191144943,0.4212069511413574,9.611248970031738e-06,0.0024483725428581238,0.005542168393731117,11.858193397521973,198.7497100830078,1.648878812789917,0.0024140297900885344,0.01472026389092207,8.08563232421875,87.36864471435547,2.0700857639312744,0.0025268627796322107,0.018013134598731995,8.437646865844727,97.93492889404297,927.0,0.4212069511413574,0.2685934901237488,43824.37109375,0.4522378444671631,5.679880619049072,0.2814600467681885,0.009527080692350864,0.010681373067200184,0.7178018093109131,0.0004326117632444948
S01,window2,2,0,normal,Baseline,2013-02-20 18:02:00,2013-02-20 18:03:00,1.0,0.0,1.0,1.0,0.0,0.0,0,0,0.02109375,0,73,0,1.0,0.5138888888888888,1.0,0.80078125,0.6154960757088305,0.9426670074462891,1.1331132650375366,0.7279833246482543,1,0.7688684493347808,0.7715858136732529,0.7894858121791937,0.7105058244364715,0.7894858121791937,0,1.5406136512756348,1.0,0.49020437826820473,-0.25629256254455346,1,1.0,0,0.04456543177366257,0.12053261697292328,0.0525875948369503,0.13914982974529266,0.008022163063287735,0.023731442168354988,0.34319376945495605,3.16789373755455e-06,0.0016939337365329266,0.004355205222964287,7.899487018585205,85.21409606933594,2.033257484436035,0.0011923796264454722,0.009662816300988197,8.933984756469727,115.20631408691406,2.376451253890991,0.001227298635058105,0.011935984715819359,8.65947437286377,110.93390655517578,932.0,0.34319376945495605,0.2959083914756775,108335.0,0.5848639011383057,5.404802322387695,0.25620830059051514,0.010462610982358456,0.012654575519263744,0.7878796458244324,0.0005631812964566052
S01,window3,3,0,normal,Baseline,2013-02-20 18:02:30,2013-02-20 18:03:30,1.0,0.0,1.0,1.0,0.0,0.0,0,0,0.022135416666666668,0,64,0,0.9682539682539683,0.42857142857142855,0.9682539682539683,0.9444444444444444,0.6249777048684038,0.9426669478416443,1.4592279195785522,0.8113600833767587,1,0.7484127842100659,0.7604807450960781,0.8304932262747433,0.8654023479362818,0.8654023479362818,0,2.0180325508117676,1.0,0.4525726765398862,-0.28586661460026574,1,1.0,0,0.041849106550216675,0.09476543217897415,0.04973303899168968,0.11349605768918991,0.007883931510150433,0.025230586528778076,0.4676271080970764,6.724148988723755e-07,0.0014182571321725845,0.004747004248201847,10.50523567199707,151.73809814453125,1.131790041923523,0.0005529336631298065,0.010351601988077164,6.0657806396484375,50.94465637207031,1.384268045425415,0.0006340494728647172,0.012204199098050594,6.355471611022949,56.276466369628906,913.0,0.4676271080970764,0.2814326286315918,695444.3125,0.6379485726356506,5.365503787994385,0.41228407621383667,0.012312846258282661,0.012478049844503403,0.790492832660675,0.0006365824956446886
S01,window4,4,0,normal,Baseline,2013-02-20 18:03:00,2013-02-20 18:04:00,1.0,0.0,1.0,1.0,0.0,0.0,0,0,0.0234375,0,66,0,0.9538461538461539,0.5538461538461539,0.9538461538461539,0.8877403846153846,0.8108327034250021,1.0,0.9803145527839661,0.7076602397081814,1,0.7369364121677373,0.6792050413862667,0.7460772593999632,0.9263782713793595,0.9263782713793595,1,1.5079611539840698,1.0,0.555557503335193,-0.19036874722067254,1,1.0,0,0.04711572453379631,0.1750689297914505,0.0558166429400444,0.20341359078884125,0.008700918406248093,0.03501125052571297,0.7601959705352783,9.685056284070015e-06,0.00199129618704319,0.005289794877171516,14.695858001708984,273.5766906738281,2.4964914321899414,0.0014943770365789533,0.013803648762404919,10.370047569274902,121.17188262939453,3.2566874027252197,0.0015109486412256956,0.016370901837944984,10.648526191711426,131.02928161621094,857.0,0.7601959705352783,0.3723791241645813,78491.640625,1.1153801679611206,5.2070512771606445,0.1159282922744751,0.020060008391737938,0.013593540526926517,0.7802440524101257,0.001225787797011435
S01,window5,5,0,normal,Baseline,2013-02-20 18:03:30,2013-02-20 18:04:30,1.0,0.0,1.0,1.0,0.0,0.0,0,0,0.021354166666666667,0,80,0,1.0,0.6835443037974683,1.0,0.7543512658227848,0.902390974737213,1.0,0.5415493249893188,0.5966649296508598,1,0.5897750142599822,0.5240328584209831,0.6350690729803199,0.5899694900967765,0.6350690729803199,0,0.8756691217422485,0.8756691217422485,0.6565681017659264,0.004991913081295207,1,1.0,0,0.04121135547757149,0.07836460322141647,0.047737278044223785,0.08820652216672897,0.006525925826281309,0.014007430523633957,0.2038280963897705,2.7641654014587402e-06,0.0029680468142032623,0.0056217992678284645,8.551569938659668,98.2446517944336,0.8961347341537476,0.003781745443120599,0.01809004321694374,5.354963302612305,36.05984115600586,1.099962830543518,0.004131385590881109,0.022189654409885406,5.587671279907227,40.97686004638672,949.0,0.2038280963897705,0.1865605115890503,73739.46875,0.2266172468662262,5.986382484436035,0.42454302310943604,0.005908486433327198,0.008393867872655392,0.6424393057823181,0.0001962081150850281
S01,window6,6,0,normal,Baseline,2013-02-20 18:04:00,2013-02-20 18:05:00,1.0,0.0,1.0,1.0,0.0,0.0,0,0,0.020833333333333332,0,76,0,1.0,0.6666666666666666,1.0,0.79375,0.9217052566437564,1.0,0.7349179983139038,0.6774361646690985,1,0.6258683317040844,0.6695347010461066,0.5933826778404173,0.6719736055514469,0.6719736055514469,0,1.0360238552093506,1.0,0.6431782436597936,-0.11957368583906092,1,1.0,0,0.038575537502765656,0.08132205903530121,0.04522271081805229,0.09180723875761032,0.006647172849625349,0.014869737438857555,0.20381146669387817,5.243346095085144e-07,0.0026623252779245377,0.0053417920134961605,7.945530414581299,83.9149398803711,0.9132888913154602,0.0042302776128053665,0.01660083793103695,6.100378513336182,43.8505973815918,1.1171003580093384,0.004834163002669811,0.020020460709929466,6.211747169494629,47.08819580078125,911.0,0.20381146669387817,0.18787121772766113,388704.96875,0.24168282747268677,5.8688507080078125,0.3552200496196747,0.006590754259377718,0.008887330070137978,0.6677707433700562,0.00022110909048933536
S01,window7,7,0,normal,Baseline,2013-02-20 18:04:30,2013-02-20 18:05:30,1.0,0.0,1.0,1.0,0.0,0.0,0,0,0.02109375,0,70,0,1.0,0.7391304347826086,1.0,0.858016304347826,0.9571466644000953,1.0,0.7847728729248047,0.6680562793121417,1,0.6397179047657381,0.6977789093085593,0.5839007024465925,0.836195923926091,0.836195923926091,0,1.1083502769470215,1.0,0.6827961732330722,-0.08897420346519358,1,1.0,0,0.03706957772374153,0.0925063043832779,0.043272968381643295,0.10583078116178513,0.0062033929862082005,0.01755942590534687,0.3376411199569702,1.2735836207866669e-06,0.0018865331076085567,0.0044143772684037685,10.86147689819336,168.86105346679688,1.175203561782837,0.0012036642292514443,0.011960038915276527,6.799034595489502,56.01921463012695,1.5128446817398071,0.001323158387094736,0.014166509732604027,7.190084457397461,67.185546875,886.0,0.3376411199569702,0.211408793926239,265111.0625,0.307278573513031,5.574376583099365,0.2854834794998169,0.010171998292207718,0.009116158820688725,0.7339427471160889,0.00030833345954306424
S01,window8,8,0,normal,Baseline,2013-02-20 18:05:00,2013-02-20 18:06:00,1.0,0.0,1.0,1.0,0.0,0.0,0,0,0.021354166666666667,0,69,0,1.0,0.8088235294117647,1.0,0.8653492647058824,0.926871400259222,1.0,0.6302764415740967,0.6195935383011986,1,0.643176429068552,0.604278587621077,0.6292223456205666,0.7976662105111878,0.7976662105111878,0,0.9857004880905151,0.9857004880905151,0.703020783033421,-0.061335579202180135,1,1.0,0,0.03891056776046753,0.10164224356412888,0.04492446780204773,0.10898970067501068,0.0060139005072414875,0.011575095355510712,0.1181078553199768,7.066875696182251e-06,0.0021442067809402943,0.0048995595425367355,4.517014026641846,26.957029342651367,2.1449644565582275,0.0026030836161226034,0.013448759913444519,12.135900497436523,221.02381896972656,2.2128400802612305,0.0029917326755821705,0.015989361330866814,11.08594799041748,189.5823211669922,856.0,0.1181078553199768,0.1057828962802887,16712.880859375,0.14564825594425201,5.807438850402832,0.16592852771282196,0.005495981778949499,0.008306276984512806,0.6897830963134766,0.00013398283044807613
S01,window9,9,0,normal,Baseline,2013-02-20 18:05:30,2013-02-20 18:06:30,1.0,0.0,1.0,1.0,0.0,0.0,0,0,0.020833333333333332,0,72,0,1.0,0.9014084507042254,1.0,0.8248239436619719,0.9694369737069137,1.0,0.4808420240879059,0.645127670661803,1,0.5162005194558358,0.3034964471342555,0.5513225352101113,0.17693026074350868,0.5513225352101113,0,0.6911476850509644,0.6911476850509644,0.7822797038886679,0.2716340935870316,1,1.0,0,0.03479846566915512,0.10547177493572235,0.040857911109924316,0.12047798186540604,0.0060594454407691956,0.01878245919942856,0.3132820129394531,6.027519702911377e-06,0.00231081061065197,0.0046363333240151405,11.05146312713623,147.26040649414062,1.4015462398529053,0.003656409913673997,0.01569613628089428,9.151198387145996,93.37451934814453,1.492477536201477,0.004207483492791653,0.018500473350286484,9.161718368530273,92.90399932861328,903.0,0.3132820129394531,0.2612797021865845,51975.27734375,0.35171639919281006,5.639411926269531,0.1388847827911377,0.011747660115361214,0.008378997445106506,0.69063401222229,0.0003527808003127575
S01,window10,10,0,normal,Baseline,2013-02-20 18:06:00,2013-02-20 18:07:00,1.0,0.0,1.0,1.0,0.0,0.0,0,0,0.02265625,0,81,0,1.0,0.8625,1.0,0.7416015625,0.980519490499597,1.0,0.4784238040447235,0.6133402813965607,1,0.7746848104419426,-0.1855450394354067,0.5867876451533909,0.35951595761074867,0.7746848104419426,0,0.683822751045227,0.683822751045227,0.7707735720453563,0.2700571215796721,1,1.0,0,0.041999176144599915,0.16983143985271454,0.04834402725100517,0.1862797737121582,0.006344848778098822,0.028409097343683243,0.7444791793823242,6.891787052154541e-08,0.002272060140967369,0.004445950500667095,20.81334114074707,516.8089599609375,2.0328195095062256,0.0028749124612659216,0.014980498701334,9.60300350189209,98.76144409179688,2.234036684036255,0.003056533867493272,0.017956623807549477,9.413036346435547,94.45227813720703,888.0,0.7444791793823242,0.22434979677200317,10802411.0,0.7524324655532837,5.388924598693848,0.14339089393615723,0.023702766746282578,0.00913811381906271,0.7193097472190857,0.0008070767507888377
S01,window11,11,0,normal,Baseline,2013-02-20 18:06:30,2013-02-20 18:07:30,1.0,0.0,1.0,1.0,0.0,0.0,0,0,0.020572916666666666,0,76,0,0.9866666666666667,0.7466666666666667,0.9866666666666667,0.7916666666666666,0.9425286159417914,1.0,0.7987653017044067,0.6618030224075039,1,0.7492927410373171,0.6324254145669821,0.5084812988014671,0.8884818739601523,0.8884818739601523,0,1.3309366703033447,1.0,0.6787585847825375,-0.09303451268121876,1,1.0,0,0.04105772450566292,0.09871868789196014,0.0481388233602047,0.11334119737148285,0.007081097457557917,0.019683802500367165,0.2619768977165222,1.9599683582782745e-06,0.0024620743934065104,0.004538986831903458,7.484926223754883,70.08206939697266,0.8382870554924011,0.0025666493456810713,0.013392386958003044,4.859973430633545,25.087480545043945,0.9523743391036987,0.002582288347184658,0.016416454687714577,4.9417195320129395,26.19883918762207,864.0,0.2619768977165222,0.2304806113243103,133663.84375,0.37808123230934143,5.532712459564209,0.39644166827201843,0.010100817307829857,0.010278926230967045,0.7249603271484375,0.0003874520771205425
S01,window12,12,0,normal,Baseline,2013-02-20 18:07:00,2013-02-20 18:08:00,1.0,0.0,1.0,1.0,0.0,0.0,0,0,0.020572916666666666,0,72,0,0.9859154929577465,0.704225352112676,0.9859154929577465,0.8391285211267606,0.9231459577942894,1.0,0.8620607256889343,0.6420010422094841,1,0.7508377725784515,0.740329827862584,0.7036498601756115,0.8974435863086064,0.8974435863086064,0,1.4451311826705933,1.0,0.6558170267749065,-0.11076280632607549,1,1.0,0,0.03768698871135712,0.09100718796253204,0.04435064271092415,0.1046803891658783,0.006663650739938021,0.017560256645083427,0.2802965044975281,4.179775714874268e-06,0.002259131520986557,0.004577861167490482,8.324725151062012,94.82481384277344,1.1953067779541016,0.0033139102160930634,0.013738756068050861,6.925199508666992,59.07948684692383,1.2850008010864258,0.003505831118673086,0.01686250790953636,6.937750339508057,57.90461349487305,883.0,0.2802965044975281,0.17854201793670654,67060.1796875,0.3114931285381317,5.635824680328369,0.23614603281021118,0.008997100405395031,0.009515602141618729,0.7131845355033875,0.0003083625924773514
S01,window13,13,0,normal,Baseline,2013-02-20 18:07:30,2013-02-20 18:08:30,1.0,0.0,1.0,1.0,0.0,0.0,0,0,0.022916666666666665,0,64,0,0.9841269841269841,0.8412698412698413,0.9841269841269841,0.9332837301587301,0.9585749763945919,1.0,0.4904800355434418,0.5466388744137571,1,0.6986092728175712,0.8290512985644276,0.6696152290641645,0.6896538880930648,0.8290512985644276,0,0.9694263339042664,0.9694263339042664,0.7239631928612842,-0.030576240599269222,1,1.0,0,0.028149627149105072,0.03213723376393318,0.03392292559146881,0.03856651484966278,0.005773299373686314,0.011002040468156338,0.1492212861776352,5.731359124183655e-06,0.0026232823729515076,0.00518896896392107,6.229715347290039,55.01994705200195,0.307172566652298,0.0036673981230705976,0.017342176288366318,4.251169204711914,25.746950149536133,0.37085196375846863,0.003674629610031843,0.02097860723733902,3.8973922729492188,21.85930824279785,859.0,0.1492212861776352,0.105345219373703,26035.93359375,0.13260889053344727,5.927821159362793,0.7992568612098694,0.005391853861510754,0.007390296086668968,0.6392958164215088,0.0001210448972415179
S01,window14,14,1,stress,Stroop,2013-02-20 18:08:30,2013-02-20 18:09:30,0.9666666666666667,0.9666666666666667,0.03333333333333333,1.0,0.0,0.0,0,0,0.02421875,0,68,0,1.0,0.5671641791044776,1.0,0.8805970149253731,0.7359392695624457,0.9525641798973083,0.9413313865661621,0.8077123501823866,1,0.815531683862803,0.864173718505307,0.8584538620126957,0.6051546751466802,0.864173718505307,0,1.3128492832183838,1.0,0.5476474525105247,-0.20772488390371824,1,1.0,0,0.047070156782865524,0.1413397192955017,0.056060273200273514,0.16345369815826416,0.008990115486085415,0.025145841762423515,0.4427170753479004,7.327646017074585e-06,0.0033935275860130787,0.007605267688632011,12.05225944519043,180.2887420654297,2.043905019760132,0.0032646472100168467,0.02276383340358734,11.705561637878418,148.92669677734375,2.455815076828003,0.0032758847810328007,0.028086889535188675,11.79335880279541,151.94091796875,876.0,0.4427170753479004,0.39344751834869385,60417.3671875,0.6247066855430603,5.715760707855225,0.09038291126489639,0.010072502307593822,0.012305185198783875,0.6835917830467224,0.0006323133129626513
S01,window15,15,1,stress,Stroop,2013-02-20 18:09:00,2013-02-20 18:10:00,1.0,1.0,0.0,1.0,0.0,0.0,0,0,0.0234375,0,58,0,1.0,0.8070175438596491,1.0,1.0254934210526316,0.7395981628470858,0.5437093675136566,0.6158331632614136,0.7055758207399687,1,0.7418242054287415,0.8902626103295811,0.7511519533695951,0.6020684521550286,0.8902626103295811,0,0.9795184135437012,0.9795184135437012,0.6467346250436152,-0.21658626779562085,1,1.0,0,0.03307909518480301,0.039564475417137146,0.03928569704294205,0.04644078388810158,0.0062065995298326015,0.01097366027534008,0.09410543739795685,8.784234523773193e-06,0.0026534348726272583,0.005266689695417881,4.248633861541748,22.314861297607422,0.4546729624271393,0.004145880229771137,0.017831603065133095,3.806401252746582,23.23454475402832,0.5433593392372131,0.00425771763548255,0.022093206644058228,3.6219120025634766,21.824182510375977,883.0,0.09410543739795685,0.08934683352708817,10712.9921875,0.14034676551818848,5.955109596252441,0.6898505091667175,0.004672760143876076,0.00807933695614338,0.650129497051239,0.00012042122398270294
S01,window16,16,1,stress,Stroop,2013-02-20 18:09:30,2013-02-20 18:10:30,0.7833333333333333,0.7833333333333333,0.21666666666666667,1.0,0.0,0.0,0,0,0.022135416666666668,0,56,0,1.0,0.8545454545454545,1.0,1.0826704545454546,0.9737554516550113,0.44677698612213135,0.6346900463104248,0.6628452318916103,1,0.7319284868490157,0.8057794435203406,0.41882971447561695,0.5669293074490815,0.8057794435203406,0,1.051504135131836,1.0,0.7339448173146851,-0.18850325419207792,1,1.0,0,0.03140823915600777,0.06500902026891708,0.03691735118627548,0.07314808666706085,0.005509111098945141,0.011883591301739216,0.12418363243341446,1.9567087292671204e-06,0.002081317827105522,0.0040587857365608215,5.750983715057373,41.93355941772461,1.2122764587402344,0.001600285992026329,0.013738145120441914,9.761235237121582,144.1577606201172,1.3139162063598633,0.001873633824288845,0.016411514952778816,9.122457504272461,127.11714172363281,839.0,0.12418363243341446,0.11095374822616577,63465.5703125,0.1439472734928131,5.7478156089782715,0.19320324063301086,0.006737774237990379,0.007525239139795303,0.6821671724319458,0.00014121974527370185
S01,window17,17,0,normal,First Rest,2013-02-20 18:10:30,2013-02-20 18:11:30,1.0,0.0,1.0,1.0,0.0,0.0,0,0,0.02109375,0,65,0,0.984375,0.640625,0.984375,0.9072265625,0.7143862352402589,1.0,0.7404659390449524,0.6331422615945805,1,0.7033885840363502,0.688798963883582,0.7255199559574323,0.7054242763437535,0.7255199559574323,0,1.329585075378418,1.0,0.5674408705720777,-0.18234094118993527,1,1.0,0,0.043365590274333954,0.1148175448179245,0.05099762976169586,0.1339465230703354,0.00763204088434577,0.023433033376932144,0.557152271270752,2.209097146987915e-06,0.0024791499599814415,0.005838034674525261,15.913379669189453,345.96875,2.1254115104675293,0.0021132323890924454,0.01723981462419033,11.98766803741455,186.1520538330078,2.6825637817382812,0.002195806475356221,0.020658329129219055,12.784151077270508,214.9927215576172,884.0,0.557152271270752,0.15238404273986816,252208.140625,0.5369018912315369,5.633666515350342,0.1642160266637802,0.011795300990343094,0.010824671946465969,0.7083574533462524,0.0005491070332936943
S01,window18,18,0,normal,First Rest,2013-02-20 18:11:00,2013-02-20 18:12:00,1.0,0.0,1.0,1.0,0.0,0.0,0,0,0.029166666666666667,0,51,0,0.96,0.9,0.96,1.1859375,0.9400596489626989,1.0,0.26923882961273193,0.4486711829077645,1,0.12361565251063882,0.2502398691702468,-0.00611381185428976,-0.09948318760042056,0.2502398691702468,0,0.17714917659759521,0.17714917659759521,0.8163029770290502,0.7698657356430796,1,1.0,0,0.023899156600236893,0.03139391541481018,0.028370246291160583,0.03599552437663078,0.004471088759601116,0.009492844343185425,0.19469909369945526,9.313225746154785e-07,0.0021504696924239397,0.004187604878097773,11.255151748657227,200.0633087158203,0.25431162118911743,0.00235172500833869,0.014309404417872429,4.484760284423828,24.381189346313477,0.27354729175567627,0.002691705245524645,0.01697869412600994,3.993926525115967,19.010765075683594,818.0,0.19469909369945526,0.05419895052909851,209056.5625,0.09006566554307938,5.862845420837402,0.7749459147453308,0.0067332712933421135,0.005714927334338427,0.6383166909217834,9.011409565573558e-05
S01,window19,19,0,normal,First Rest,2013-02-20 18:11:30,2013-02-20 18:12:30,1.0,0.0,1.0,1.0,0.0,0.0,0,0,0.031510416666666666,0,50,0,0.9387755102040817,0.8979591836734694,0.9387755102040817,1.1996173469387754,0.9450686369798397,1.0,0.1468818485736847,0.2918186555497655,1,0.324439623791334,-0.07779214560562348,0.3419595326704055,0.3651857165906711,0.3651857165906711,0,0.1291770488023758,0.1291770488023758,0.8175416617239184,0.8142329675854413,1,1.0,0,0.024563521146774292,0.03414798155426979,0.02882383204996586,0.038624875247478485,0.0042603109031915665,0.01015321072191,0.21552813053131104,3.2600946724414825e-06,0.001978140790015459,0.00360330892726779,12.68178939819336,234.0318603515625,0.2866993844509125,0.0037054261192679405,0.013615205883979797,4.687423229217529,27.036117553710938,0.30835118889808655,0.003820959012955427,0.016223587095737457,4.223172664642334,21.561687469482422,830.0,0.21552813053131104,0.09194643795490265,66111.0,0.10062749683856964,5.824227333068848,0.6763546466827393,0.00804781261831522,0.005479380022734404,0.6422979831695557,0.00010308769560651854
S01,window20,20,0,normal,First Rest,2013-02-20 18:12:00,2013-02-20 18:13:00,1.0,0.0,1.0,1.0,0.0,0.0,0,0,0.028645833333333332,0,52,0,0.9607843137254902,0.9215686274509803,0.9607843137254902,1.163296568627451,0.9908761716965756,1.0,0.13898633420467377,0.34549244398124024,1,0.25393397514322996,0.5056726887470209,0.025066873669804094,0.007841085306111967,0.5056726887470209,0,0.103557288646698,0.103557288646698,0.847691436369793,0.862789205257838,1,1.0,0,0.02488677017390728,0.03249093517661095,0.029621511697769165,0.03786858171224594,0.0047347405925393105,0.010667412541806698,0.2251211553812027,1.2069940567016602e-06,0.002106911037117243,0.004227633588016033,12.257630348205566,227.99671936035156,0.29045581817626953,0.004389701411128044,0.014512797817587852,4.752145767211914,28.802642822265625,0.31460997462272644,0.004906618036329746,0.017376523464918137,4.351273059844971,23.801170349121094,810.0,0.2251211553812027,0.07276017218828201,186513.890625,0.11033128947019577,5.821773052215576,0.6939542293548584,0.007501295302063227,0.006110105663537979,0.6444452404975891,0.00011379369971109554
S01,window21,21,0,normal,First Rest,2013-02-20 18:12:30,2013-02-20 18:13:30,1.0,0.0,1.0,1.0,0.0,0.0,0,0,0.03046875,0,51,0,0.96,0.92,0.96,1.1696875,0.9940714280385072,1.0,0.17543190717697144,0.46951537258989057,1,0.12635111269130375,0.5139670389069315,0.08310094861802454,0.1416766215555013,0.5139670389069315,0,0.10297781229019165,0.10297781229019165,0.847923647182533,0.8635400447194352,1,1.0,0,0.024893786758184433,0.03170023486018181,0.029473043978214264,0.03662505000829697,0.004579257220029831,0.01022571325302124,0.22268779575824738,1.257285475730896e-07,0.0020399107597768307,0.004016845487058163,12.940707206726074,253.2852325439453,0.2608437240123749,0.0030707428231835365,0.014133522287011147,4.070312023162842,20.908700942993164,0.30340874195098877,0.003077393863350153,0.017084650695323944,3.8038933277130127,18.42557144165039,822.0,0.22268779575824738,0.05774877965450287,1771179.25,0.103189617395401,5.84749698638916,0.8042196035385132,0.007282865233719349,0.0059113469906151295,0.6446629762649536,0.00010456521704327315
S01,window22,22,0,normal,First Rest,2013-02-20 18:13:00,2013-02-20 18:14:00,1.0,0.0,1.0,1.0,0.0,0.0,0,0,0.031510416666666666,0,50,0,0.9183673469387755,0.8775510204081632,0.9183673469387755,1.190688775510204,0.987124955742245,1.0,0.16990485787391663,0.5039082855653987,1,0.10145511931183204,0.4950580012740062,0.4837200345691994,0.04491308967770703,0.4950580012740062,0,0.24047787487506866,0.24047787487506866,0.806783576786187,0.7032421395706967,1,1.0,0,0.0237633865326643,0.03060811758041382,0.028242485597729683,0.0364263541996479,0.004479099065065384,0.011008626781404018,0.22846823930740356,3.650784492492676e-07,0.002007322385907173,0.003900479059666395,12.593762397766113,227.93087768554688,0.2636602222919464,0.004091950133442879,0.013664399273693562,4.2759785652160645,23.802574157714844,0.3180663287639618,0.004325978923588991,0.01641267165541649,4.152432918548584,22.001558303833008,775.0,0.22846823930740356,0.09117822349071503,625805.875,0.10947044938802719,5.722142696380615,0.7246947288513184,0.0090847322717309,0.005844458006322384,0.651572585105896,0.00012118985614506528
S01,window23,23,0,normal,First Rest,2013-02-20 18:13:30,2013-02-20 18:14:30,1.0,0.0,1.0,1.0,0.0,0.0,0,0,0.026822916666666665,0,50,0,0.9591836734693877,0.9183673469387755,0.9591836734693877,1.191326530612245,0.9921371466650948,1.0,0.1270286589860916,0.3892652423137051,1,0.5215224802833901,0.4677875896557718,0.31071977113648336,0.4141187193071578,0.5215224802833901,0,0.08966293931007385,0.08966293931007385,0.8478585235379088,0.87571828613171,1,1.0,0,0.022735796868801117,0.02998092956840992,0.026966145262122154,0.03630191460251808,0.004230349790304899,0.010280744172632694,0.2066381275653839,1.9259750843048096e-06,0.0018894122913479805,0.0037726096343249083,12.111328125,204.9598846435547,0.311149537563324,0.002173010027036071,0.013325517997145653,4.851336479187012,30.941177368164062,0.38818344473838806,0.0022037983871996403,0.015895109623670578,4.805258750915527,30.04454231262207,839.0,0.2066381275653839,0.12671488523483276,107290.140625,0.10369163751602173,5.796334266662598,0.6184988617897034,0.008231278508901596,0.00557329598814249,0.6579424738883972,0.00010569369624136016
S01,window24,24,0,normal,First Rest,2013-02-20 18:14:00,2013-02-20 18:15:00,1.0,0.0,1.0,1.0,0.0,0.0,0,0,0.0265625,0,51,0,0.96,0.94,0.96,1.1796875,0.9906828738425368,1.0,0.10503493249416351,0.3110995310057322,1,0.3072635639036066,0.19718696188760662,-0.485460868640014,0.2778318227614986,0.3072635639036066,0,0.08625758439302444,0.08625758439302444,0.8565791037134586,0.8854131340676097,1,1.0,0,0.024597592651844025,0.034047000110149384,0.02930678427219391,0.03873353824019432,0.004709192086011171,0.011028868146240711,0.24008852243423462,2.4605542421340942e-06,0.0022180862724781036,0.004253932274878025,13.594651222229004,267.12200927734375,0.2940262258052826,0.0034816162660717964,0.014155499637126923,5.061050891876221,31.117021560668945,0.30947673320770264,0.003694139886647463,0.017398979514837265,4.502689838409424,24.591691970825195,784.0,0.24008852243423462,0.07797199487686157,97574.9765625,0.11274893581867218,5.787569999694824,0.6713861227035522,0.008271561935544014,0.006044256966561079,0.6409323811531067,0.00012163593055447564
S01,window25,25,0,normal,First Rest,2013-02-20 18:14:30,2013-02-20 18:15:30,1.0,0.0,1.0,1.0,0.0,0.0,0,0,0.023697916666666666,0,59,0,0.9655172413793104,0.6896551724137931,0.9655172413793104,1.017510775862069,0.9363453025030484,1.0,0.1958635300397873,0.4184471078686816,1,0.3856377602420532,0.4585446530294473,0.5464466237373131,0.43418673887952774,0.5464466237373131,0,0.23230959475040436,0.23230959475040436,0.7266381485172535,0.6517767308753578,1,1.0,0,0.028416654095053673,0.02895197458565235,0.034017954021692276,0.03542349860072136,0.005601299926638603,0.01030173059552908,0.13544435799121857,3.725290298461914e-09,0.002464277669787407,0.004942744038999081,5.549306392669678,46.111610412597656,0.1834125816822052,0.0034932971466332674,0.016796719282865524,2.473695993423462,6.78162956237793,0.22472718358039856,0.0035173939540982246,0.02016138657927513,2.4808762073516846,6.555343151092529,846.0,0.13544435799121857,0.09706488251686096,36358068.0,0.11632518470287323,5.902013301849365,1.2240508794784546,0.005180304870009422,0.007309276610612869,0.6516912579536438,0.000106125655292999
S01,window26,26,0,normal,First Rest,2013-02-20 18:15:00,2013-02-20 18:16:00,1.0,0.0,1.0,1.0,0.0,0.0,0,0,0.023958333333333335,0,58,0,1.0,0.6491228070175439,1.0,1.035361842105263,0.9796007580419074,1.0,0.25557243824005127,0.5320479416362689,1,0.4372009689894375,0.46736704126079304,0.4954997460325827,0.20667006782256847,0.4954997460325827,0,0.455581396818161,0.455581396818161,0.7079712105377736,0.434055634797579,1,1.0,0,0.029404789209365845,0.02784734219312668,0.035495076328516006,0.0350709930062294,0.0060902866534888744,0.011027386412024498,0.12878113985061646,2.5993213057518005e-06,0.00274102995172143,0.0053253695368766785,5.150198936462402,37.22567367553711,0.16422809660434723,0.003646529745310545,0.01743127778172493,1.8820765018463135,3.1432864665985107,0.20954103767871857,0.003796585602685809,0.020894914865493774,2.081758737564087,4.304988861083984,848.0,0.12878113985061646,0.10565484315156937,49544.140625,0.13457322120666504,5.914595603942871,1.3799684047698975,0.005045352037996054,0.007905492559075356,0.6482592821121216,0.00012160324695287272
S01,window27,27,0,normal,First Rest,2013-02-20 18:15:30,2013-02-20 18:16:30,1.0,0.0,1.0,1.0,0.0,0.0,0,0,0.02109375,0,56,0,1.0,0.8545454545454545,1.0,1.0798295454545455,0.9934839700154683,1.0,0.2771853506565094,0.621156852527358,1,0.5104887526691192,0.49181248527099913,0.5030057578626144,-0.046914255683199235,0.5104887526691192,0,0.4901892840862274,0.4901892840862274,0.7908444444141994,0.46454534478127596,1,1.0,0,0.029828475788235664,0.04533318430185318,0.03573445975780487,0.052431344985961914,0.005905985366553068,0.011205676943063736,0.12032336741685867,1.6530975699424744e-06,0.0023197121918201447,0.0049111368134617805,4.639991283416748,28.52094841003418,0.5455324053764343,0.0030593732371926308,0.014397207647562027,5.4522905349731445,41.72123336791992,0.6161820292472839,0.0034045965876430273,0.0176644679158926,4.907036781311035,34.870849609375,823.0,0.12032336741685867,0.0965002104640007,72786.609375,0.1320485919713974,5.808689117431641,0.5241365432739258,0.005589196924120188,0.007959754206240177,0.6730530261993408,0.0001255672104889527
S01,window28,28,0,normal,First Rest,2013-02-20 18:16:00,2013-02-20 18:17:00,1.0,0.0,1.0,1.0,0.0,0.0,0,0,0.021875,0,68,0,1.0,0.582089552238806,1.0,0.8843283582089553,0.9436426645528011,1.0,0.8118634819984436,0.6201146430432517,1,0.6570092868031029,0.7234463548770352,0.536415183483067,0.4523171924540391,0.7234463548770352,0,1.4848862886428833,1.0,0.6159286202613626,-0.13946246819015795,1,1.0,0,0.036668676882982254,0.06831030547618866,0.043492935597896576,0.0770343542098999,0.006824261508882046,0.012179614044725895,0.13182556629180908,5.017034709453583e-06,0.0029789768159389496,0.006328471004962921,5.202846050262451,38.09187698364258,1.457808017730713,0.002242803806439042,0.020167432725429535,12.112765312194824,219.0507049560547,1.589633584022522,0.0029291335958987474,0.024032417684793472,11.209089279174805,191.93026733398438,893.0,0.13182556629180908,0.12498772144317627,26275.59375,0.17405779659748077,5.982858180999756,0.14954334497451782,0.004686830565333366,0.008792218752205372,0.6434668898582458,0.00014834300964139402
S01,window29,29,0,normal,First Rest,2013-02-20 18:16:30,2013-02-20 18:17:30,1.0,0.0,1.0,1.0,0.0,0.0,0,0,0.02109375,0,68,0,1.0,0.7164179104477612,1.0,0.8740671641791045,0.9745761291136879,1.0,0.8564273715019226,0.6091714434601355,1,0.6361306037968741,0.7176783784141385,0.4531012673884074,0.30238355931506633,0.7176783784141385,0,1.6420379877090454,1.0,0.6789400029132108,-0.09143059458724978,1,1.0,0,0.03631645813584328,0.09144461154937744,0.042572204023599625,0.10222674906253815,0.006255749147385359,0.013352538459002972,0.16297495365142822,3.688037395477295e-07,0.0024744709953665733,0.00518436636775732,6.5850419998168945,57.411983489990234,1.8023821115493774,0.002267907839268446,0.014791426248848438,10.959693908691406,172.3179473876953,1.9653570652008057,0.0023086131550371647,0.01758294552564621,10.507492065429688,158.1124267578125,878.0,0.16297495365142822,0.1545293927192688,441901.5625,0.1908988654613495,5.8312458992004395,0.16073566675186157,0.006327842827886343,0.008440466597676277,0.6738483905792236,0.0001782902836566791
S01,window30,30,1,stress,TMCT,2013-02-20 18:17:30,2013-02-20 18:18:30,0.8833333333333333,0.8833333333333333,0.11666666666666667,1.0,0.0,0.0,0,0,0.025260416666666667,0,57,0,1.0,0.8571428571428571,1.0,1.0549665178571428,0.5168623253767404,0.7153071165084839,0.4612002670764923,0.6164669098488796,1,0.13431204218944232,-0.6091151159082859,0.4920551986570191,-0.6193137807635455,0.4920551986570191,0,0.7931438684463501,0.7931438684463501,0.61860145362553,-0.02795865083218696,1,1.0,0,0.03493332862854004,0.15360891819000244,0.040478117763996124,0.16915564239025116,0.0055447909981012344,0.019741196185350418,0.38309717178344727,3.3061951398849487e-07,0.0019222646951675415,0.003939167130738497,13.118880271911621,213.29641723632812,2.147761106491089,0.0021554180420935154,0.013039172627031803,11.375246047973633,133.44610595703125,2.530858278274536,0.0022830346133559942,0.015441928058862686,11.488083839416504,138.84072875976562,868.0,0.38309717178344727,0.2949565649032593,1158725.25,0.36495885252952576,5.4441375732421875,0.05940374732017517,0.01575556956231594,0.008010813035070896,0.721540629863739,0.0003897148126270622
S01,window31,31,1,stress,TMCT,2013-02-20 18:18:00,2013-02-20 18:19:00,1.0,1.0,0.0,1.0,0.0,0.0,0,0,0.026041666666666668,0,61,0,1.0,0.9166666666666666,1.0,0.9861979166666667,0.9838850977769771,1.0,0.38309136033058167,0.5372589890568004,1,0.30861380762579566,0.3442284566684932,0.4212286131750511,-0.1897281175473104,0.4212286131750511,0,0.721237063407898,0.721237063407898,0.7897084896589699,0.2497342110363463,1,1.0,0,0.025845155119895935,0.032589491456747055,0.03052348643541336,0.03670060634613037,0.0046783313155174255,0.009207000955939293,0.20804181694984436,5.21540641784668e-08,0.0024040397256612778,0.004309703595936298,13.296844482421875,271.77197265625,0.29627326130867004,0.0024165611248463392,0.016245080158114433,5.264435768127441,35.07008743286133,0.30840080976486206,0.0033508907072246075,0.019207391887903214,4.689726829528809,27.823932647705078,881.0,0.20804181694984436,0.0670599564909935,3988985.5,0.0939636304974556,6.053713321685791,0.7160587906837463,0.005531284958124161,0.00562260253354907,0.6002375483512878,8.476887160213664e-05
S01,window32,32,1,stress,TMCT,2013-02-20 18:18:30,2013-02-20 18:19:30,1.0,1.0,0.0,1.0,0.0,0.0,0,0,0.0234375,0,64,0,0.9841269841269841,0.873015873015873,0.9841269841269841,0.9429563492063492,0.9858320948696403,1.0,0.3017735481262207,0.43877019280875457,1,0.1923794401227789,-0.007237555105139014,0.03843885748522337,-0.21837755727346664,0.1923794401227789,0,0.19045038521289825,0.19045038521289825,0.8227363359713483,0.7647377972346705,1,1.0,0,0.028256667777895927,0.03830273449420929,0.03324704244732857,0.04217910021543503,0.004990374203771353,0.010764619335532188,0.25711068511009216,3.7206336855888367e-06,0.0027678925544023514,0.00481667835265398,15.671586990356445,345.3241882324219,0.418437659740448,0.0030581927858293056,0.017061730846762657,5.591281414031982,39.21256637573242,0.44256991147994995,0.0035328881349414587,0.020820071920752525,5.009848594665527,31.74052619934082,875.0,0.25711068511009216,0.07029721140861511,69104.0078125,0.12318325787782669,6.038416385650635,0.5427836775779724,0.00646054744720459,0.005902844946831465,0.5907471776008606,0.00011587702465476468
S01,window33,33,1,stress,TMCT,2013-02-20 18:19:00,2013-02-20 18:20:00,0.7,0.7,0.3,1.0,0.0,0.0,0,0,0.022135416666666668,0,58,0,0.9298245614035088,0.8421052631578947,0.9298245614035088,1.0326206140350878,0.9691089282665281,1.0,0.43456968665122986,0.4669098488796248,1,0.6458258428241334,0.7450991192711116,0.5389336663854086,0.09477126102492382,0.7450991192711116,0,0.4999947249889374,0.4999947249889374,0.7635402235249243,0.4308789983057648,1,1.0,0,0.03310709074139595,0.07498189061880112,0.03831581398844719,0.08177392184734344,0.005208722315728664,0.010646323673427105,0.14310666918754578,6.323680281639099e-06,0.0024601109325885773,0.00456985691562295,7.234529972076416,71.53848266601562,1.3158800601959229,0.0026049900334328413,0.016193578019738197,12.265660285949707,180.5052032470703,1.375863790512085,0.003206707304343581,0.019891588017344475,11.754644393920898,167.71249389648438,903.0,0.14310666918754578,0.13467568159103394,22630.283203125,0.12684892117977142,5.947895526885986,0.12791743874549866,0.005733883008360863,0.006689171306788921,0.6414013504981995,0.0001133441983256489
S01,window34,34,0,normal,Second Rest,2013-02-20 18:20:00,2013-02-20 18:21:00,1.0,0.0,1.0,1.0,0.0,0.0,0,0,0.022135416666666668,0,60,0,0.9830508474576272,0.6610169491525424,0.9830508474576272,1.0,0.8914452479689066,0.4832884669303894,0.8142260313034058,0.7483064095883273,1,0.8522508548702538,0.671433149473778,0.7171714291066548,0.5525132686921971,0.8522508548702538,0,1.343991994857788,1.0,0.6284505235432144,-0.2614013170378878,1,1.0,0,0.04370264708995819,0.13383501768112183,0.050519075244665146,0.14579534530639648,0.006816427689045668,0.018727008253335953,0.22073101997375488,3.3401884138584137e-06,0.0018723742105066776,0.004412851762026548,7.127441883087158,62.39799880981445,1.8137774467468262,0.0025471507105976343,0.01200106181204319,9.14184856414795,99.9586410522461,1.853132963180542,0.002721669152379036,0.01442699320614338,8.691534996032715,90.86936950683594,790.0,0.22073101997375488,0.20184336602687836,66083.40625,0.3137599527835846,5.403835773468018,0.23612986505031586,0.010820060037076473,0.010194990783929825,0.746878445148468,0.00035070080775767565
S01,window35,35,0,normal,Second Rest,2013-02-20 18:20:30,2013-02-20 18:21:30,1.0,0.0,1.0,1.0,0.0,0.0,0,0,0.021354166666666667,0,60,0,0.9830508474576272,0.5254237288135594,0.9830508474576272,0.9872881355932204,0.637387024106199,0.7047739326953888,0.5521551370620728,0.7008858780614904,1,-0.6136549406551457,0.32291015998746714,0.27987141281583233,-0.7641104304941482,0.32291015998746714,0,1.0200272798538208,1.0,0.49799576824880887,-0.3102224726640098,1,1.0,0,0.03530501574277878,0.06144687533378601,0.04154040664434433,0.06704176962375641,0.0062353904359042645,0.011512861587107182,0.1621246635913849,5.677342414855957e-06,0.002575376071035862,0.00569542683660984,5.411650657653809,47.673736572265625,0.9369877576828003,0.0033297601621598005,0.017895830795168877,7.3999738693237305,77.37467193603516,0.9549831748008728,0.0033363725524395704,0.02114720456302166,6.5212249755859375,61.224124908447266,855.0,0.1621246635913849,0.0763709545135498,28556.435546875,0.14656929671764374,5.892858982086182,0.25115767121315,0.005156837869435549,0.008235477842390537,0.6596095561981201,0.00013254597433842719
S01,window36,36,0,normal,Second Rest,2013-02-20 18:21:00,2013-02-20 18:22:00,1.0,0.0,1.0,1.0,0.0,0.0,0,0,0.022135416666666668,0,62,0,0.9836065573770492,0.5901639344262295,0.9836065573770492,0.9690061475409836,0.9408061571794214,1.0,0.5006242394447327,0.600833767587285,1,-0.4784477518149496,0.3944918265349692,0.22527896377011836,-0.6170929479733602,0.3944918265349692,0,0.47128087282180786,0.47128087282180786,0.6679006451175472,0.38769115827632616,1,1.0,0,0.03461996838450432,0.052128035575151443,0.041288092732429504,0.059423524886369705,0.006668123882263899,0.011905685998499393,0.16474266350269318,2.8032809495925903e-06,0.003303762525320053,0.00602026516571641,6.279883861541748,58.56583786010742,0.862637460231781,0.004676495678722858,0.02098585106432438,8.942913055419922,113.91688537597656,0.9381041526794434,0.004792388062924147,0.02525600790977478,8.310677528381348,101.48530578613281,879.0,0.16474266350269318,0.11951965093612671,58767.8046875,0.16367793083190918,6.010217666625977,0.24016176164150238,0.004764365032315254,0.008326533250510693,0.6236432194709778,0.00014174536045175046
S01,window37,37,0,normal,Second Rest,2013-02-20 18:21:30,2013-02-20 18:22:30,1.0,0.0,1.0,1.0,0.0,0.0,0,0,0.02265625,0,56,0,1.0,0.7636363636363637,1.0,1.0730113636363636,0.9858200895992582,1.0,0.4190296530723572,0.5101615424700364,1,-0.29065157972499717,0.3718007481162622,0.06839593925500596,-0.2959412714641555,0.3718007481162622,0,0.3966425657272339,0.3966425657272339,0.7615363157615995,0.5289033657634898,1,1.0,0,0.028984522446990013,0.029209930449724197,0.035431891679763794,0.03736981004476547,0.006447368301451206,0.012237968854606152,0.1861923187971115,2.3324042558670044e-05,0.0030126767233014107,0.0059037236496806145,6.705745220184326,68.67854309082031,0.31866157054901123,0.0033130282536149025,0.0181596539914608,3.4692914485931396,18.812116622924805,0.4056112468242645,0.003434236627072096,0.022597605362534523,3.668717861175537,19.86477279663086,859.0,0.1861923187971115,0.10213443636894226,7982.849609375,0.1643580049276352,5.93755578994751,0.7926874160766602,0.005358454771339893,0.008221271447837353,0.6368257999420166,0.00014976788952481002
S01,window38,38,0,normal,Second Rest,2013-02-20 18:22:00,2013-02-20 18:23:00,1.0,0.0,1.0,1.0,0.0,0.0,0,0,0.02578125,0,52,0,1.0,0.8431372549019608,1.0,1.1553308823529411,0.9887638223163016,1.0,0.34763452410697937,0.4893173527879104,1,-0.3044725156822994,0.46448940589121646,0.2581221091164282,-0.30787445110897643,0.46448940589121646,0,0.22478097677230835,0.22478097677230835,0.8114059509784438,0.7253511552773553,1,1.0,0,0.02870945632457733,0.029236411675810814,0.03465544059872627,0.03670859709382057,0.005945982877165079,0.011942664161324501,0.12891548871994019,2.7101486921310425e-07,0.0026427130214869976,0.005174063611775637,5.789698600769043,42.19981002807617,0.23349367082118988,0.0037459710147231817,0.017428530380129814,3.126217842102051,13.450864791870117,0.2941029369831085,0.003930135630071163,0.021342607215046883,3.1453888416290283,12.504846572875977,848.0,0.12891548871994019,0.11645999550819397,475676.8125,0.15092869102954865,5.859116077423096,1.0277211666107178,0.005936531350016594,0.007756802719086409,0.651503324508667,0.00014262723561841995
S01,window39,39,0,normal,Second Rest,2013-02-20 18:22:30,2013-02-20 18:23:30,1.0,0.0,1.0,1.0,0.0,0.0,0,0,0.021875,0,55,0,1.0,0.7777777777777778,1.0,1.0824652777777777,0.9814577062839422,1.0,0.49225035309791565,0.5190203230849401,1,0.5749466965739517,0.4305081082390648,0.6123700062999209,0.6716960394596344,0.6716960394596344,0,0.6013908982276917,0.6013908982276917,0.7454093331735245,0.32730686167662726,1,1.0,0,0.038970787078142166,0.1236334815621376,0.04577882960438728,0.13693533837795258,0.006808042526245117,0.017503492534160614,0.31663453578948975,1.4742836356163025e-06,0.0023688040673732758,0.0052895499393343925,9.902381896972656,142.09654235839844,1.964707612991333,0.003503781044855714,0.0140442606061697,11.371085166931152,151.8397216796875,2.1738483905792236,0.003842053236439824,0.0172978937625885,11.310907363891602,153.7168731689453,841.0,0.31663453578948975,0.20914077758789062,214771.796875,0.29663893580436707,5.632444381713867,0.1612633317708969,0.009048813953995705,0.009685845114290714,0.7105072736740112,0.0003063722397200763
S01,window40,40,0,normal,Second Rest,2013-02-20 18:23:00,2013-02-20 18:24:00,1.0,0.0,1.0,1.0,0.0,0.0,0,0,0.021875,0,64,0,1.0,0.7936507936507936,1.0,0.9439484126984127,0.9777772144295522,1.0,0.622265636920929,0.618030224075039,1,0.5677131373717371,0.4834541398625479,0.5730460849993302,0.8169093446272716,0.8169093446272716,0,0.9048620462417603,0.9048620462417603,0.7203072771650071,0.027677495460865842,1,1.0,0,0.0390922836959362,0.11679910868406296,0.04560879245400429,0.12941959500312805,0.006516507361084223,0.016560450196266174,0.31238555908203125,7.801689207553864e-06,0.0025389958173036575,0.0052735814824700356,10.797468185424805,164.34336853027344,1.938535213470459,0.0030383935663849115,0.015621311031281948,12.153726577758789,173.09852600097656,2.1448915004730225,0.0030948773492127657,0.01914450339972973,12.160192489624023,176.13414001464844,859.0,0.31238555908203125,0.20635628700256348,40040.7578125,0.27205678820610046,5.728168487548828,0.14446872472763062,0.008682473562657833,0.008926629088819027,0.6841270327568054,0.00027424850850366056
S01,window41,41,0,normal,Second Rest,2013-02-20 18:23:30,2013-02-20 18:24:30,1.0,0.0,1.0,1.0,0.0,0.0,0,0,0.023697916666666666,0,67,0,1.0,0.8787878787878788,1.0,0.8901515151515151,0.9862475271100566,1.0,0.5615171790122986,0.6701406982803544,1,-0.09505373553540232,-0.16327531256491193,0.24464339973917143,-0.3696343462280802,0.24464339973917143,0,0.7836428880691528,0.7836428880691528,0.7690251208412532,0.17655535734472494,1,1.0,0,0.03384383022785187,0.03931349143385887,0.04023558273911476,0.04598860442638397,0.006391752045601606,0.011086023412644863,0.1564878672361374,1.346692442893982e-06,0.003024111036211252,0.006406982429325581,6.2215046882629395,60.83002853393555,0.47556036710739136,0.003976978827267885,0.019186412915587425,4.694995403289795,34.87716293334961,0.5954554677009583,0.0040508536621928215,0.023782780393958092,4.664024353027344,36.73550796508789,894.0,0.1564878672361374,0.1198951005935669,116201.640625,0.1463964283466339,6.030379295349121,0.6537234783172607,0.004483484197407961,0.008052281104028225,0.6291916966438293,0.00012289990263525397
S01,window42,42,1,stress,Opposite Opinion,2013-02-20 18:25:30,2013-02-20 18:26:30,0.5833333333333334,0.5833333333333334,0.0,0.5833333333333334,0.0,0.0,0,0,0.021875,0,62,0,0.9508196721311475,0.7868852459016393,0.9508196721311475,0.9723360655737705,0.9542086921767857,1.0,0.578344464302063,0.6743095362167796,1,0.15516223358922193,-0.3494119435566958,0.50254231147737,0.006138551967533857,0.50254231147737,0,0.899023175239563,0.899023175239563,0.7012783229159647,0.015758506001354755,1,1.0,0,0.0308378878980875,0.06117016822099686,0.036379389464855194,0.06722813844680786,0.005541499238461256,0.010255670174956322,0.12325835227966309,1.9390136003494263e-06,0.0025727408938109875,0.0050862859934568405,6.402947425842285,58.1333122253418,1.1184879541397095,0.002665703184902668,0.016759023070335388,13.20163631439209,221.2110137939453,1.2417463064193726,0.002794093918055296,0.0199003703892231,12.368395805358887,201.61883544921875,846.0,0.12325835227966309,0.12160202115774155,63567.5546875,0.11496038734912872,5.939170837402344,0.1449412852525711,0.005230617709457874,0.007034727372229099,0.6339811682701111,0.00010517876944504678
S01,window43,43,1,stress,Opposite Opinion,2013-02-20 18:26:00,2013-02-20 18:27:00,0.5333333333333333,0.5333333333333333,0.0,0.5333333333333333,0.0,0.0,0,0,0.021614583333333333,0,67,0,0.9696969696969697,0.7121212121212122,0.9696969696969697,0.8915719696969697,0.9462291682188645,1.0,0.7943891882896423,0.7097446586763939,1,0.7171224148561278,0.7767952520422269,0.7416009326590449,0.8076749829712633,0.8076749829712633,0,1.3153624534606934,1.0,0.6626566292535382,-0.1058669503695262,1,1.0,0,0.03792955353856087,0.11757156252861023,0.04495280981063843,0.12953220307826996,0.007023257669061422,0.016988666728138924,0.230306476354599,4.870817065238953e-06,0.002658197656273842,0.005680431611835957,7.805161476135254,81.40925598144531,2.12455677986145,0.0026642181910574436,0.017628971487283707,12.873579025268555,192.78323364257812,2.2019641399383545,0.0028385494370013475,0.020374704152345657,11.967094421386719,167.55868530273438,870.0,0.230306476354599,0.22843289375305176,47282.92578125,0.29400861263275146,5.716882705688477,0.10946669429540634,0.007874888367950916,0.0097644729539752,0.6943536996841431,0.00028861479950137436
S02,window1,1,0,normal,Baseline,2013-02-20 18:49:30,2013-02-20 18:50:30,1.0,0.0,1.0,1.0,0.0,0.0,0,0,0.020572916666666666,0,89,0,0.9886363636363636,0.8181818181818182,0.9886363636363636,0.6741832386363636,0.9395424561714109,1.0,0.682745635509491,0.6920270974465867,1,0.6326544540333977,0.7538126405639861,0.7208821331185451,0.4580102428786854,0.7538126405639861,0,1.0453423261642456,1.0,0.7068627368514234,-0.07193256777532908,1,1.0,0,0.03759321942925453,0.13629847764968872,0.045045655220746994,0.16556714475154877,0.007452433463186026,0.0315694585442543,0.5929553508758545,6.497837603092194e-06,0.0023857979103922844,0.004851295612752438,14.517661094665527,241.8702850341797,2.025744915008545,0.003874726826325059,0.015730760991573334,11.735457420349121,154.62606811523438,2.588787794113159,0.003969775978475809,0.01896846294403076,12.228374481201172,168.23995971679688,946.0,0.5929553508758545,0.5562527179718018,91254.2578125,0.9953522086143494,5.370683670043945,0.10963734984397888,0.0200261902064085,0.010988937690854073,0.7364924550056458,0.0009966306388378143
S02,window2,2,0,normal,Baseline,2013-02-20 18:50:00,2013-02-20 18:51:00,1.0,0.0,1.0,1.0,0.0,0.0,0,0,0.021875,0,90,0,1.0,0.8876404494382022,1.0,0.6627457865168539,0.9781376176247355,1.0,0.5609076619148254,0.6294945284002085,1,0.518912134689845,0.6439417775231787,0.6467499364984843,0.6608075874795116,0.6608075874795116,0,0.9016789197921753,0.9016789197921753,0.758329573083484,0.0591476194454692,1,1.0,0,0.038464635610580444,0.041990023106336594,0.04671888053417206,0.04884698987007141,0.008254244923591614,0.012996306642889977,0.13180550932884216,2.9476359486579895e-06,0.004118467681109905,0.007472997531294823,4.0925750732421875,22.676116943359375,0.7222268581390381,0.004111781716346741,0.024524806067347527,7.340798377990723,94.54475402832031,0.7768023610115051,0.004586210940033197,0.030438341200351715,6.0578203201293945,68.53063201904297,925.0,0.13180550932884216,0.10838542878627777,44715.671875,0.21925880014896393,6.111555576324463,0.39103904366493225,0.003761134808883071,0.01017286442220211,0.6155539751052856,0.00016890397819224745
S02,window3,3,0,normal,Baseline,2013-02-20 18:50:30,2013-02-20 18:51:30,1.0,0.0,1.0,1.0,0.0,0.0,0,0,0.021614583333333333,0,91,0,1.0,0.9444444444444444,1.0,0.6604166666666667,0.9780391551577543,1.0,0.6545979976654053,0.6524231370505471,1,0.558471717605488,0.575310219962806,0.5520063519154418,0.4566365391112194,0.575310219962806,0,0.9957916736602783,0.9957916736602783,0.7716103569590762,-0.017948551537506408,1,1.0,0,0.0375235453248024,0.03914934769272804,0.045021068304777145,0.04541953280568123,0.00749752065166831,0.011780683882534504,0.13974207639694214,2.3636966943740845e-06,0.003702327609062195,0.007224828936159611,4.658722877502441,32.5240478515625,0.47801077365875244,0.00443108519539237,0.025693580508232117,5.468545436859131,45.99153518676758,0.5376453399658203,0.004483151249587536,0.03112390823662281,4.829977989196777,36.668800354003906,929.0,0.13974207639694214,0.10584215819835663,59120.140625,0.18115252256393433,6.12959623336792,0.6703411340713501,0.003734028432518244,0.009172565303742886,0.6110481023788452,0.00013878452591598034
S02,window4,4,0,normal,Baseline,2013-02-20 18:51:00,2013-02-20 18:52:00,1.0,0.0,1.0,1.0,0.0,0.0,0,0,0.02265625,0,95,0,1.0,0.8617021276595744,1.0,0.6324800531914894,0.9491437767509294,1.0,1.0265109539031982,0.7420531526836894,1,0.6219332632773532,0.7593669615556622,0.6001467260561939,0.7919480531060112,0.7919480531060112,0,1.3146777153015137,1.0,0.7294239840891087,-0.05420341751439528,1,1.0,0,0.03986918181180954,0.04908156767487526,0.047961100935935974,0.05564112961292267,0.00809191819280386,0.012687167152762413,0.1806105673313141,1.8328428268432617e-06,0.004026226699352264,0.007945718243718147,5.249869346618652,46.90234375,0.7488859295845032,0.006337493192404509,0.027477994561195374,7.836511135101318,89.7371826171875,0.781893253326416,0.006938483566045761,0.032984744757413864,6.793673515319824,70.13528442382812,946.0,0.1806105673313141,0.10743354260921478,98541.21875,0.21421541273593903,6.158532619476318,0.32481563091278076,0.003655657172203064,0.009831410832703114,0.6068411469459534,0.00016096422041300684
S02,window5,5,0,normal,Baseline,2013-02-20 18:51:30,2013-02-20 18:52:30,1.0,0.0,1.0,1.0,0.0,0.0,0,0,0.022135416666666668,0,89,0,1.0,0.875,1.0,0.6779119318181818,0.946887030242167,1.0,0.9334591627120972,0.7034914017717562,1,0.5571803970769733,0.7200804635486168,0.5319053609279462,0.8512168696986272,0.8512168696986272,0,1.2652024030685425,1.0,0.7340661090726502,-0.05077824243945828,1,1.0,0,0.037414997816085815,0.04420946165919304,0.04557715728878975,0.05092776566743851,0.008162161335349083,0.01234806701540947,0.14699381589889526,2.8777867555618286e-07,0.004015587270259857,0.008322367444634438,4.387836456298828,29.905338287353516,0.6851387023925781,0.0032055519986897707,0.02591065503656864,8.41003704071045,101.49713134765625,0.7580370903015137,0.003276868723332882,0.03127017617225647,7.5384979248046875,87.43778991699219,897.0,0.14699381589889526,0.1077035441994667,510787.71875,0.19652877748012543,6.118688106536865,0.35606127977371216,0.0036663247738033533,0.009877177886664867,0.6043844223022461,0.00015247474948409945
S02,window6,6,0,normal,Baseline,2013-02-20 18:52:00,2013-02-20 18:53:00,1.0,0.0,1.0,1.0,0.0,0.0,0,0,0.022395833333333334,0,85,0,1.0,0.9404761904761905,1.0,0.7033110119047619,0.9739303843224976,1.0,0.7551398873329163,0.645127670661803,1,0.5574456705032413,0.5942337055080966,0.4082435216457416,0.7288746054822424,0.7288746054822424,0,1.1956006288528442,1.0,0.7683695914872254,-0.024374546776518402,1,1.0,0,0.03827005997300148,0.10639826208353043,0.04557303339242935,0.11493474245071411,0.00730297202244401,0.014032264240086079,0.22233426570892334,3.382563591003418e-06,0.0032818098552525043,0.0071072764694690704,7.84127140045166,94.47299194335938,1.872651219367981,0.0034184560645371675,0.02113289386034012,14.226949691772461,222.65151977539062,2.0949854850769043,0.0037764927837997675,0.026402495801448822,13.806979179382324,215.26002502441406,866.0,0.22233426570892334,0.18125885725021362,65729.515625,0.21670596301555634,5.95043420791626,0.05792141705751419,0.005417960230261087,0.009317990392446518,0.6372221112251282,0.00019690442422870547
S02,window7,7,0,normal,Baseline,2013-02-20 18:52:30,2013-02-20 18:53:30,1.0,0.0,1.0,1.0,0.0,0.0,0,0,0.022135416666666668,0,91,0,1.0,0.8888888888888888,1.0,0.6602430555555555,0.9806572746459066,1.0,0.7555944919586182,0.6743095362167796,1,0.6630061632868511,0.4077928652156245,0.41447289227449,0.6874908579375774,0.6874908579375774,0,1.2495300769805908,1.0,0.7497527379493275,-0.03816901467185674,1,1.0,0,0.038874004036188126,0.11729789525270462,0.045898035168647766,0.12825092673301697,0.007024030201137066,0.01740455813705921,0.2845473289489746,4.284083843231201e-06,0.002730032429099083,0.0056727007031440735,10.085201263427734,138.85140991210938,2.0148041248321533,0.0013861135812476277,0.01891879178583622,13.508624076843262,205.80023193359375,2.299351453781128,0.0015708968276157975,0.0231202132999897,13.052339553833008,197.25396728515625,897.0,0.2845473289489746,0.27376818656921387,66419.6484375,0.31597328186035156,5.790095806121826,0.07857289910316467,0.00795962754637003,0.009562221355736256,0.6799202561378479,0.00030291860457509756
S02,window8,8,0,normal,Baseline,2013-02-20 18:53:00,2013-02-20 18:54:00,1.0,0.0,1.0,1.0,0.0,0.0,0,0,0.021614583333333333,0,88,0,1.0,0.9195402298850575,1.0,0.6752873563218391,0.9794986099618934,1.0,0.6359581351280212,0.6352266805627931,1,-0.31046213297563746,0.21905721610959392,0.3227110540897324,-0.6252727298590192,0.3227110540897324,0,0.9679758548736572,0.9679758548736572,0.7648680894552253,0.002760866582333321,1,1.0,0,0.03781908378005028,0.0862743929028511,0.04467060789465904,0.09684570133686066,0.006851523648947477,0.014951248653233051,0.20310240983963013,1.6763806343078613e-06,0.0027752132155001163,0.005870882421731949,6.686854839324951,60.386966705322266,0.8302275538444519,0.0026594605296850204,0.01752762869000435,6.69035530090332,47.60127639770508,0.9254140257835388,0.0029593752697110176,0.021229539066553116,6.516559600830078,45.53489685058594,866.0,0.20310240983963013,0.16061830520629883,121155.3046875,0.23423846065998077,5.807570934295654,0.2822485566139221,0.00665346859022975,0.009201952256262302,0.6707505583763123,0.00022353982785716653
S02,window9,9,1,stress,Stroop,2013-02-20 18:54:00,2013-02-20 18:55:00,0.8666666666666667,0.8666666666666667,0.13333333333333333,1.0,0.0,0.0,0,0,0.021875,0,95,0,1.0,0.9893617021276596,1.0,0.6343085106382979,0.9855839605579044,1.0,0.6237848997116089,0.6508598228243877,1,0.29475594433903257,0.4191120105304179,0.4552504895773043,0.5865997546140825,0.5865997546140825,0,1.0321197509765625,1.0,0.7914198690184352,-0.006795499222226109,1,1.0,0,0.03556559234857559,0.08135003596544266,0.04238580912351608,0.08718501031398773,0.006820216774940491,0.013218266889452934,0.19468991458415985,3.5744160413742065e-06,0.003024911507964134,0.00587624404579401,6.979611873626709,73.88917541503906,1.529477596282959,0.0037927753292024136,0.021621694788336754,14.717655181884766,247.62791442871094,1.5797107219696045,0.003981382120400667,0.02610398270189762,13.452398300170898,216.0908660888672,873.0,0.19468991458415985,0.1585765779018402,54467.6171875,0.19314071536064148,5.92407751083374,0.06616725772619247,0.0054481495171785355,0.008879724889993668,0.650239884853363,0.00017472257604822516
S02,window10,10,1,stress,Stroop,2013-02-20 18:54:30,2013-02-20 18:55:30,1.0,1.0,0.0,1.0,0.0,0.0,0,0,0.027083333333333334,0,94,0,1.0,0.989247311827957,1.0,0.6370967741935484,0.9888348075875907,1.0,0.3816010057926178,0.5669619593538301,1,0.009528183053204112,-0.05811810195530014,0.3848282119634938,0.025147029124113134,0.3848282119634938,0,0.5338655710220337,0.5338655710220337,0.8389628099052566,0.46011732442325104,1,1.0,0,0.03283778950572014,0.03528427332639694,0.039510052651166916,0.04158608615398407,0.006672265939414501,0.012345078401267529,0.236074760556221,5.029141902923584e-08,0.0033063627779483795,0.006599318236112595,9.464655876159668,149.5817413330078,0.38332071900367737,0.0030033846851438284,0.021902045235037804,3.974285840988159,22.658201217651367,0.42877066135406494,0.003096543252468109,0.02678242139518261,3.5819649696350098,18.209949493408203,829.0,0.236074760556221,0.09796472638845444,4694136.0,0.163246750831604,5.962771415710449,0.7398825287818909,0.005335668101906776,0.008279139176011086,0.6196659803390503,0.0001524009567219764
S02,window11,11,1,stress,Stroop,2013-02-20 18:55:00,2013-02-20 18:56:00,1.0,1.0,0.0,1.0,0.0,0.0,0,0,0.028645833333333332,0,91,0,1.0,0.9777777777777777,1.0,0.6588541666666666,0.9925024662904542,1.0,0.300815224647522,0.47837415320479415,1,0.054674839272125596,-0.37558885311063417,0.20508869166491756,0.09062674698467577,0.20508869166491756,0,0.19686678051948547,0.19686678051948547,0.8691751729462988,0.7945921693864615,1,1.0,0,0.02898789756000042,0.03599552437663078,0.034859225153923035,0.041688237339258194,0.005871327593922615,0.013501336798071861,0.32054540514945984,3.343448042869568e-07,0.0027191750705242157,0.005429774522781372,15.438316345214844,340.9657897949219,0.36105960607528687,0.0036253121215850115,0.019690027460455894,5.911394119262695,43.93263244628906,0.37458536028862,0.004211036022752523,0.02311067096889019,5.101630210876465,33.17145919799805,865.0,0.32054540514945984,0.0762503370642662,958727.0625,0.18749618530273438,5.925876140594482,0.6544123888015747,0.0072692157700657845,0.007429674733430147,0.6319767832756042,0.00018228610861115158
S02,window12,12,1,stress,Stroop,2013-02-20 18:55:30,2013-02-20 18:56:30,0.5666666666666667,0.5666666666666667,0.43333333333333335,1.0,0.0,0.0,0,0,0.021614583333333333,0,92,0,1.0,0.978021978021978,1.0,0.6564217032967034,0.991844714539702,1.0,0.5239974856376648,0.5742574257425742,1,0.3596427332801483,0.3944518246805727,0.33115572049225667,-0.42179689244827684,0.3944518246805727,0,0.8938953280448914,0.8938953280448914,0.7993726727662127,0.09747244399662747,1,1.0,0,0.03192022442817688,0.03738272935152054,0.03836885467171669,0.045278988778591156,0.006448631640523672,0.012606930918991566,0.18378356099128723,1.6354024410247803e-06,0.002851896919310093,0.005700805690139532,6.641427516937256,64.57965087890625,0.6332645416259766,0.0027895832899957895,0.02126644179224968,6.684500694274902,84.31819915771484,0.712627112865448,0.0028091808781027794,0.02519078180193901,5.844259738922119,63.58476638793945,834.0,0.18378356099128723,0.1112128347158432,112378.1875,0.16723330318927765,5.878659248352051,0.383150577545166,0.0057817003689706326,0.008328422904014587,0.6449769139289856,0.0001589347084518522
S02,window13,13,0,normal,First Rest,2013-02-20 18:56:00,2013-02-20 18:57:00,0.9333333333333333,0.06666666666666667,0.9333333333333333,1.0,0.0,0.0,0,0,0.02109375,0,89,0,1.0,0.9204545454545454,1.0,0.6715198863636364,0.9727929585800038,1.0,0.9031592607498169,0.7238144867118291,1,0.5748613684473316,0.7175676974373041,0.5978984338836452,0.5375246110551006,0.7175676974373041,0,1.464118242263794,1.0,0.7600197057558192,-0.03066539671863544,1,1.0,0,0.040236033499240875,0.10237085074186325,0.047867268323898315,0.11750154197216034,0.00763123482465744,0.018098466098308563,0.3624933958053589,1.9837170839309692e-06,0.003042202442884445,0.006351226009428501,10.857504844665527,177.7080535888672,1.8489004373550415,0.0036416766233742237,0.021152714267373085,13.401566505432129,207.2487335205078,2.2113938331604004,0.004528392571955919,0.025244658812880516,13.439279556274414,212.54367065429688,909.0,0.3624933958053589,0.18643903732299805,182734.421875,0.350683331489563,5.852770805358887,0.09692315757274628,0.007287821266800165,0.010224522091448307,0.6691757440567017,0.0003275545022916049
S02,window14,14,0,normal,First Rest,2013-02-20 18:56:30,2013-02-20 18:57:30,1.0,0.0,1.0,1.0,0.0,0.0,0,0,0.022395833333333334,0,88,0,1.0,0.9080459770114943,1.0,0.6839080459770115,0.9803813720241724,1.0,0.982271671295166,0.7613340281396561,1,0.5923604916064901,0.7452385223727536,0.5003005965025737,0.2468557995918014,0.7452385223727536,0,1.4507925510406494,1.0,0.7573328024118494,-0.03249086389050859,1,1.0,0,0.03589008003473282,0.0693090483546257,0.043030496686697006,0.08064113557338715,0.0071404133923351765,0.014965912327170372,0.2526087760925293,1.5757977962493896e-06,0.003063187003135681,0.00612984411418438,8.022127151489258,98.18329620361328,1.2883808612823486,0.003344607539474964,0.02002299204468727,11.97447681427002,185.67922973632812,1.540989637374878,0.0038105228450149298,0.024503955617547035,11.8134126663208,186.20130920410156,893.0,0.2526087760925293,0.1333903670310974,160305.328125,0.24554288387298584,5.901415824890137,0.14716921746730804,0.006039177067577839,0.009399965405464172,0.6574856638908386,0.00022397853899747133
S02,window15,15,0,normal,First Rest,2013-02-20 18:57:00,2013-02-20 18:58:00,1.0,0.0,1.0,1.0,0.0,0.0,0,0,0.021875,0,87,0,1.0,0.9534883720930233,1.0,0.6936773255813954,0.9922433394311497,1.0,0.7389801740646362,0.7415320479416363,1,0.5310425844113797,0.729096651515598,0.3209140776034339,-0.42389374969717364,0.729096651515598,0,0.9920011162757874,0.9920011162757874,0.7798682390389755,-0.00789376979009293,1,1.0,0,0.03295283019542694,0.05304824188351631,0.038872625678777695,0.061120256781578064,0.005919795949012041,0.01438067201524973,0.2377595752477646,5.613081157207489e-06,0.002489756792783737,0.004545240662992001,9.64350414276123,124.15023803710938,0.5133621096611023,0.0030123761389404535,0.016813544556498528,4.838360786437988,28.173147201538086,0.5825349688529968,0.0032399839255958796,0.0197999719530344,4.733713626861572,27.497194290161133,839.0,0.2377595752477646,0.1842898428440094,42358.12109375,0.20291022956371307,5.752190113067627,0.5292178988456726,0.008225579746067524,0.007935269735753536,0.6694328188896179,0.0002068037138087675
S02,window16,16,0,normal,First Rest,2013-02-20 18:57:30,2013-02-20 18:58:30,1.0,0.0,1.0,1.0,0.0,0.0,0,0,0.026041666666666668,0,86,0,1.0,0.9882352941176471,1.0,0.6972426470588236,0.9919410070231232,1.0,0.6497342586517334,0.7764460656591975,1,0.13952957527721369,-0.00199695587158572,-0.00019944435071407983,0.007298822899046963,0.13952957527721369,0,0.8065012693405151,0.8065012693405151,0.8122262928199443,0.18795457065055965,1,1.0,0,0.03186560049653053,0.04746444895863533,0.0378006212413311,0.05407490208745003,0.00593502027913928,0.015462289564311504,0.3361164331436157,4.377216100692749e-07,0.0029883841052651405,0.005463557783514261,14.36758041381836,272.37652587890625,0.7036682367324829,0.004014931619167328,0.02031671814620495,7.083408355712891,68.57574462890625,0.7928149104118347,0.004028442315757275,0.024302178993821144,6.654731750488281,62.401756286621094,827.0,0.3361164331436157,0.18146206438541412,767877.1875,0.22685176134109497,5.813412189483643,0.26021021604537964,0.00941644050180912,0.007500061299651861,0.6310839653015137,0.0002390823938185349
S02,window17,17,0,normal,First Rest,2013-02-20 18:58:00,2013-02-20 18:59:00,1.0,0.0,1.0,1.0,0.0,0.0,0,0,0.02890625,0,88,0,1.0,1.0,1.0,0.6772629310344828,0.9933745143436072,1.0,0.6310205459594727,0.7920792079207921,1,0.16632535653291244,-0.052114641808172324,-0.08459394213643504,-0.04330657997044856,0.16632535653291244,0,0.8109853267669678,0.8109853267669678,0.8169138216263855,0.18735830181893398,1,1.0,0,0.03140236809849739,0.04362165182828903,0.03745334595441818,0.05131644755601883,0.0060509806498885155,0.015849623829126358,0.33766406774520874,3.5744160413742065e-06,0.0026764962822198868,0.005386305972933769,13.440221786499023,246.00965881347656,0.6646510362625122,0.004118525888770819,0.01999983936548233,6.711730480194092,67.05416870117188,0.7507642507553101,0.004205474629998207,0.024268396198749542,6.301364421844482,58.620914459228516,837.0,0.33766406774520874,0.1723310798406601,94466.921875,0.24090950191020966,5.7810468673706055,0.2901352643966675,0.009391856379806995,0.007857880555093288,0.6485306024551392,0.00025121058570221066
S02,window18,18,0,normal,First Rest,2013-02-20 18:58:30,2013-02-20 18:59:30,1.0,0.0,1.0,1.0,0.0,0.0,0,0,0.021354166666666667,0,89,0,1.0,0.9204545454545454,1.0,0.6786221590909091,0.9918773742767114,1.0,0.6964887976646423,0.7436164669098488,1,0.44050460533098273,0.3388258391587677,0.46831465954019863,0.22189245360535712,0.46831465954019863,0,1.0532442331314087,1.0,0.7657450304648316,-0.02589429279445854,1,1.0,0,0.03429348021745682,0.03981718793511391,0.04106275364756584,0.04699113592505455,0.006769271567463875,0.012839927338063717,0.16997772455215454,5.0156377255916595e-06,0.0029178112745285034,0.0060043069534003735,5.823058605194092,48.184940338134766,0.4011586308479309,0.0034580312203615904,0.022368505597114563,4.142822265625,24.213624954223633,0.4711455702781677,0.0036074479576200247,0.02612687647342682,3.766772508621216,19.712383270263672,838.0,0.16997772455215454,0.10537414252758026,33889.55078125,0.17655549943447113,5.88624906539917,0.7484937906265259,0.005486676469445229,0.008785570971667767,0.6481559872627258,0.00016486372624058276
S02,window19,19,0,normal,First Rest,2013-02-20 18:59:00,2013-02-20 19:00:00,1.0,0.0,1.0,1.0,0.0,0.0,0,0,0.022916666666666665,0,88,0,1.0,0.8390804597701149,1.0,0.6758261494252874,0.9633843849533577,1.0,0.8132308721542358,0.686294945284002,1,0.602390887811173,0.5225589656345845,0.5664475527495136,0.44637160430208894,0.602390887811173,0,1.1729164123535156,1.0,0.7246474993940534,-0.05742976583062609,1,1.0,0,0.0388704389333725,0.05398136377334595,0.046491701155900955,0.061592813581228256,0.007621262222528458,0.012792820110917091,0.14513300359249115,3.373250365257263e-06,0.0036490634083747864,0.00739193195477128,4.8636980056762695,33.73335647583008,0.6003432273864746,0.004215925466269255,0.02492225170135498,6.125823020935059,50.97407150268555,0.7080026268959045,0.0047164130955934525,0.030524451285600662,5.776360988616943,46.90303039550781,910.0,0.14513300359249115,0.1257171630859375,43024.67578125,0.20178328454494476,6.052098751068115,0.5166158676147461,0.004195160698145628,0.009599446319043636,0.6290885210037231,0.00016365623741876334
S02,window20,20,1,stress,TMCT,2013-02-20 19:00:00,2013-02-20 19:01:00,0.7833333333333333,0.7833333333333333,0.21666666666666667,1.0,0.0,0.0,0,0,0.022395833333333334,0,94,0,1.0,0.978494623655914,1.0,0.641633064516129,0.9879401165256865,1.0,0.3113226294517517,0.3757165190203231,1,-0.05459331565991977,0.1356271831001182,-0.30028252603570965,-0.6493212688088168,0.1356271831001182,0,0.5040401816368103,0.5040401816368103,0.8373758662563905,0.4864932345913855,1,1.0,0,0.03536273539066315,0.0653061494231224,0.04208340495824814,0.07004274427890778,0.0067206681706011295,0.011994990520179272,0.2109953910112381,9.499490261077881e-08,0.0030932100489735603,0.006425097584724426,7.753078937530518,105.33074188232422,1.2417436838150024,0.0053149438463151455,0.022191837430000305,12.307892799377441,193.00010681152344,1.2668485641479492,0.00577323604375124,0.026318930089473724,10.861922264099121,158.56126403808594,857.0,0.2109953910112381,0.09199708700180054,2221123.25,0.16201342642307281,5.983770847320557,0.13038398325443268,0.004883874207735062,0.008478696458041668,0.630056619644165,0.00014387979172170162
S02,window21,21,1,stress,TMCT,2013-02-20 19:00:30,2013-02-20 19:01:30,1.0,1.0,0.0,1.0,0.0,0.0,0,0,0.026302083333333334,0,92,0,1.0,1.0,1.0,0.6490384615384616,0.9829604384691277,1.0,0.24498093128204346,0.3996873371547681,1,-0.4753408068580971,0.36291852910759853,-0.20630474974400945,-0.17938586914607324,0.36291852910759853,0,0.18454833328723907,0.18454833328723907,0.8764332982120143,0.8111917763300429,1,1.0,0,0.02916598692536354,0.031073398888111115,0.03524601832032204,0.037394195795059204,0.006080029532313347,0.012935137376189232,0.2829667329788208,1.2278556823730469e-05,0.002986714243888855,0.005786866880953312,13.067233085632324,251.94351196289062,0.320607453584671,0.004508091602474451,0.02044798992574215,5.376897811889648,39.151065826416016,0.3354567885398865,0.0045898426324129105,0.024723056703805923,4.780319690704346,30.505578994750977,868.0,0.2829667329788208,0.13341975212097168,23045.6015625,0.1773189902305603,5.966611862182617,0.7428110241889954,0.006366553716361523,0.007590191438794136,0.6234712600708008,0.000167317790328525
S02,window22,22,1,stress,TMCT,2013-02-20 19:01:00,2013-02-20 19:02:00,1.0,1.0,0.0,1.0,0.0,0.0,0,0,0.030989583333333334,0,90,0,1.0,1.0,1.0,0.6659058988764045,0.9869967892664936,1.0,0.36721071600914,0.5539343408025013,1,-0.31578168128341744,0.49682273022060536,-0.014135100794463635,-0.05546238098768801,0.49682273022060536,0,0.31102120876312256,0.31102120876312256,0.8649969159036359,0.6857279885535008,1,1.0,0,0.028581297025084496,0.03447756916284561,0.03403512015938759,0.03897134214639664,0.005453823134303093,0.011537279933691025,0.27517175674438477,1.3150274753570557e-06,0.002776259556412697,0.00520564429461956,15.630748748779297,349.2800598144531,0.32900288701057434,0.0032471695449203253,0.019255613908171654,5.8618292808532715,42.699440002441406,0.3448791205883026,0.003297418588772416,0.02305813692510128,5.1677350997924805,33.664188385009766,853.0,0.27517175674438477,0.06039008870720863,209251.71875,0.1389136165380478,5.9972639083862305,0.7072364687919617,0.00641866447404027,0.006625109352171421,0.606670081615448,0.0001331088278675452
S02,window23,23,1,stress,TMCT,2013-02-20 19:01:30,2013-02-20 19:02:30,0.8333333333333334,0.8333333333333334,0.16666666666666666,1.0,0.0,0.0,0,0,0.021354166666666667,0,91,0,1.0,0.9444444444444444,1.0,0.6635416666666667,0.987073440091875,1.0,0.5330857038497925,0.614382490880667,1,-0.18929241161161336,0.6294678787621889,0.795864222377988,0.5284696528209012,0.795864222377988,0,1.0187814235687256,1.0,0.7738998098053403,-0.01989830664369796,1,1.0,0,0.034634001553058624,0.06393664330244064,0.04119580611586571,0.0746338963508606,0.0065618036314845085,0.015530731528997421,0.21629154682159424,8.034985512495041e-07,0.002425204962491989,0.005013409070670605,7.068660736083984,67.51885986328125,0.6287199854850769,0.00329303415492177,0.017116529867053032,5.4343438148498535,34.37779998779297,0.67943274974823,0.0032938376534730196,0.02067510038614273,5.2696146965026855,32.27565383911133,827.0,0.21629154682159424,0.1673525869846344,269187.21875,0.23508375883102417,5.665931701660156,0.44168007373809814,0.007982981391251087,0.009132550098001957,0.6950457096099854,0.00024120362650137395
S02,window24,24,0,normal,Second Rest,2013-02-20 19:02:30,2013-02-20 19:03:30,1.0,0.0,1.0,1.0,0.0,0.0,0,0,0.021354166666666667,0,84,0,1.0,0.9397590361445783,1.0,0.7161144578313253,0.9861081156369471,1.0,0.9445165991783142,0.6951537258989057,1,0.6129316686798032,0.6190991881885236,0.6655303271076141,0.7772091725265936,0.7772091725265936,0,1.2735490798950195,1.0,0.7717360491489155,-0.021545260247389786,1,1.0,0,0.038278978317976,0.07235845923423767,0.045216962695121765,0.07878492027521133,0.006937986705452204,0.012053677812218666,0.16223770380020142,1.3854354619979858e-05,0.0033899322152137756,0.005980730056762695,5.611170768737793,48.2041015625,0.7768880724906921,0.0035396290477365255,0.020972497761249542,7.205689907073975,60.11393356323242,0.8342085480690002,0.00415795436128974,0.0262762401252985,6.8516316413879395,55.49048614501953,879.0,0.16223770380020142,0.12207666039466858,11710.2314453125,0.1700221598148346,6.0133867263793945,0.32053282856941223,0.004571522586047649,0.008696789853274822,0.626038670539856,0.00014529115287587047
S02,window25,25,0,normal,Second Rest,2013-02-20 19:03:00,2013-02-20 19:04:00,1.0,0.0,1.0,1.0,0.0,0.0,0,0,0.022135416666666668,0,84,0,1.0,0.9156626506024096,1.0,0.7170557228915663,0.9906360617851155,1.0,1.027915120124817,0.7655028660760813,1,0.5873277307318033,0.5604151516700124,0.6093449847993999,0.6343347899332301,0.6343347899332301,0,1.5919771194458008,1.0,0.7634558787764986,-0.027642189372998338,1,1.0,0,0.03449268639087677,0.07038845121860504,0.041309379041194916,0.08260311186313629,0.006816690322011709,0.016295740380883217,0.23510205745697021,1.7937272787094116e-06,0.002834714949131012,0.006050454918295145,8.813970565795898,99.83267211914062,0.9505280256271362,0.0024785385467112064,0.019983846694231033,8.494590759277344,85.39452362060547,1.1856300830841064,0.0026128035970032215,0.02364194020628929,8.651360511779785,91.1766357421875,891.0,0.23510205745697021,0.21588188409805298,131069.0078125,0.27800843119621277,5.81430721282959,0.22052398324012756,0.007536252029240131,0.009140098467469215,0.6696680784225464,0.0002655511780176312
S02,window26,26,0,normal,Second Rest,2013-02-20 19:03:30,2013-02-20 19:04:30,1.0,0.0,1.0,1.0,0.0,0.0,0,0,0.020572916666666666,0,83,0,1.0,0.9634146341463414,1.0,0.7273246951219512,0.9903711642470007,1.0,0.9225574135780334,0.7618551328817093,1,0.5189325860312151,0.4360543964944319,0.589822267563486,0.1228676660994066,0.589822267563486,0,1.5130993127822876,1.0,0.7824772029326369,-0.013382818694347431,1,1.0,0,0.03386036306619644,0.06562113761901855,0.0404898002743721,0.07733944058418274,0.006629440002143383,0.01593903824687004,0.23687660694122314,2.2742897272109985e-06,0.00244218111038208,0.005292504094541073,7.778283596038818,81.69405364990234,0.957706093788147,0.0031481110490858555,0.019591908901929855,8.758955955505371,94.65676879882812,1.1945827007293701,0.0037573687732219696,0.02286994457244873,8.634693145751953,95.48265838623047,899.0,0.23687660694122314,0.18188151717185974,104154.1015625,0.2679041922092438,5.765148162841797,0.2009541243314743,0.007542346138507128,0.009137577377259731,0.6884000897407532,0.00025405295309610665
S02,window27,27,0,normal,Second Rest,2013-02-20 19:04:00,2013-02-20 19:05:00,1.0,0.0,1.0,1.0,0.0,0.0,0,0,0.023958333333333335,0,82,0,1.0,0.9753086419753086,1.0,0.7293595679012346,0.9909569818817059,1.0,0.8700229525566101,0.7905158936946326,1,0.2644015413786129,0.4648154060025665,0.3138599916745548,-0.5829905474697488,0.4648154060025665,0,1.2921253442764282,1.0,0.7874105513546353,-0.009668161936980946,1,1.0,0,0.0325017049908638,0.047357138246297836,0.03938629850745201,0.05752366781234741,0.00688459537923336,0.01413295604288578,0.18375742435455322,4.542991518974304e-06,0.00306839682161808,0.005993589758872986,7.057201385498047,65.08222961425781,0.7426282167434692,0.0027767426799982786,0.02091396600008011,9.124175071716309,113.63536071777344,0.8772231340408325,0.002783576026558876,0.026055321097373962,8.942084312438965,111.54710388183594,901.0,0.18375742435455322,0.16299700736999512,40448.55078125,0.22267141938209534,5.9400482177734375,0.28474992513656616,0.0057870615273714066,0.008873021230101585,0.6436960697174072,0.00019974044698756188
S02,window28,28,0,normal,Second Rest,2013-02-20 19:04:30,2013-02-20 19:05:30,1.0,0.0,1.0,1.0,0.0,0.0,0,0,0.022916666666666665,0,84,0,1.0,0.9036144578313253,1.0,0.712914156626506,0.9812978583499852,1.0,1.1300941705703735,0.8353309015112037,1,0.5623276954109552,0.35711549465848,0.47122707359923316,0.6242846266508664,0.6242846266508664,0,1.6360185146331787,1.0,0.7558351406375258,-0.033591198063106065,1,1.0,0,0.03426405042409897,0.028467422351241112,0.04129176586866379,0.03510269522666931,0.007027714978903532,0.01135189738124609,0.1355486810207367,2.2649765014648438e-06,0.0034214863553643227,0.006793848238885403,5.091408729553223,39.05536651611328,0.18055354058742523,0.004058291669934988,0.02456681802868843,2.039501905441284,4.900721549987793,0.2525964677333832,0.004565586801618338,0.028688933700323105,2.156960964202881,5.643278121948242,898.0,0.1355486810207367,0.11377464234828949,59845.515625,0.16007240116596222,6.079249382019043,1.5075238943099976,0.004019162151962519,0.008678486570715904,0.6167596578598022,0.00012886557669844478
S02,window29,29,0,normal,Second Rest,2013-02-20 19:05:00,2013-02-20 19:06:00,1.0,0.0,1.0,1.0,0.0,0.0,0,0,0.02265625,0,86,0,1.0,0.8941176470588236,1.0,0.7011029411764705,0.9766748920528858,1.0,0.9571417570114136,0.6461698801459094,1,0.5984154952592861,0.38289858487367834,0.5543683931318645,0.6820833161070476,0.6820833161070476,0,1.375793695449829,1.0,0.7506495264393952,-0.03759598286913146,1,1.0,0,0.03499274328351021,0.031740788370370865,0.04233308881521225,0.03955080360174179,0.007340345997363329,0.012470388785004616,0.18646037578582764,8.581206202507019e-06,0.0035206484608352184,0.006971768569201231,5.7708420753479,56.5838623046875,0.4463576674461365,0.0033485516905784607,0.02454579621553421,3.845445394515991,33.24800491333008,0.5196911692619324,0.0034858109429478645,0.029284805059432983,3.568959951400757,26.46775245666504,912.0,0.18646037578582764,0.10104880481958389,21728.923828125,0.19096484780311584,6.0600666999816895,0.7003136873245239,0.004261187743395567,0.009207372553646564,0.6264879107475281,0.0001555105991428718
S02,window30,30,0,normal,Second Rest,2013-02-20 19:05:30,2013-02-20 19:06:30,1.0,0.0,1.0,1.0,0.0,0.0,0,0,0.022395833333333334,0,86,0,1.0,0.9647058823529412,1.0,0.7029411764705882,0.9846982833805336,1.0,0.568537175655365,0.48410630536737886,1,0.13209915963929653,0.27591899300391287,0.3938596022612045,0.08215479715303566,0.3938596022612045,0,0.7639957070350647,0.7639957070350647,0.80489226725183,0.22159062851595102,1,1.0,0,0.03563963249325752,0.05519669130444527,0.04196551442146301,0.05999542027711868,0.006325884722173214,0.012902352958917618,0.2807195484638214,3.5241246223449707e-06,0.0030202437192201614,0.005929235368967056,12.137825965881348,232.63458251953125,0.799128532409668,0.0032723071053624153,0.021059826016426086,7.95937967300415,84.65458679199219,0.8112300634384155,0.0033415977377444506,0.025256138294935226,6.9323320388793945,66.31130981445312,891.0,0.2807195484638214,0.08815832436084747,79656.5390625,0.18398039042949677,6.002286911010742,0.3006191551685333,0.005791266914457083,0.007897770963609219,0.6235417723655701,0.00016647070879116654
S02,window31,31,0,normal,Second Rest,2013-02-20 19:06:00,2013-02-20 19:07:00,1.0,0.0,1.0,1.0,0.0,0.0,0,0,0.023697916666666666,0,86,0,1.0,0.9647058823529412,1.0,0.6965073529411765,0.9770863825551496,1.0,0.7248393297195435,0.6545075560187598,1,-0.0021875776621839,0.5252338365846855,-0.11931477819291512,-0.7692310533666596,0.5252338365846855,0,1.0153791904449463,1.0,0.7790082677077214,-0.016316639655330256,1,1.0,0,0.03598627820611,0.04251924157142639,0.043334636837244034,0.04813240095973015,0.0073483590967953205,0.012348143383860588,0.21199393272399902,3.21120023727417e-06,0.0037020682357251644,0.007596752140671015,7.40920877456665,94.99383544921875,0.7382030487060547,0.0026006491389125586,0.0254129096865654,8.581038475036621,113.74580383300781,0.7493813037872314,0.003828058484941721,0.03081447258591652,6.923799514770508,76.87944793701172,888.0,0.21199393272399902,0.11017698049545288,66017.0390625,0.1833498179912567,6.0797438621521,0.2766040563583374,0.004305997863411903,0.00893979799002409,0.6076003313064575,0.00015247664123307914
S02,window32,32,0,normal,Second Rest,2013-02-20 19:06:30,2013-02-20 19:07:30,1.0,0.0,1.0,1.0,0.0,0.0,0,0,0.0234375,0,86,0,1.0,0.9882352941176471,1.0,0.6974264705882353,0.9771814453059071,1.0,0.6938710808753967,0.6565919749869724,1,-0.18816771435283544,0.428694310563301,-0.408167421590467,-0.5841708865949752,0.428694310563301,0,0.972832977771759,0.972832977771759,0.791165253461655,0.017932971790011853,1,1.0,0,0.03546696528792381,0.02965334802865982,0.04261530935764313,0.03623716160655022,0.007148340810090303,0.011298061348497868,0.15752297639846802,5.938112735748291e-06,0.0038627036847174168,0.006698593031615019,5.503911018371582,47.9839973449707,0.2990015149116516,0.004491105675697327,0.025362011045217514,3.323885679244995,17.532167434692383,0.36419638991355896,0.005066038109362125,0.03108438104391098,3.2101657390594482,15.813139915466309,952.0,0.15752297639846802,0.10070330649614334,26527.44921875,0.17016519606113434,6.188790321350098,1.0119693279266357,0.003674399573355913,0.008459433913230896,0.5910845994949341,0.00012764618440996855
S02,window33,33,0,normal,Second Rest,2013-02-20 19:07:00,2013-02-20 19:08:00,1.0,0.0,1.0,1.0,0.0,0.0,0,0,0.022395833333333334,0,82,0,1.0,0.9629629629629629,1.0,0.7301311728395061,0.979465215503856,1.0,0.6018734574317932,0.5273579989577906,1,0.3890374783083201,0.5281342355055864,0.16831804997117417,-0.6353017323848187,0.5281342355055864,0,1.0353224277496338,1.0,0.779024749836342,-0.016244807235147096,1,1.0,0,0.034198131412267685,0.05011577531695366,0.040454886853694916,0.054351747035980225,0.006256755907088518,0.009705502539873123,0.10695013403892517,1.169322058558464e-05,0.0032532159239053726,0.005968869663774967,4.357175350189209,27.351947784423828,0.8274767398834229,0.00455634668469429,0.021145667880773544,7.858262062072754,92.09920501708984,0.8324242830276489,0.0050107561983168125,0.02525632455945015,6.752584934234619,70.03730773925781,916.0,0.10695013403892517,0.08924777805805206,9146.3369140625,0.12214289605617523,6.1270623207092285,0.289028525352478,0.003718594554811716,0.0075887893326580524,0.6057855486869812,9.419677371624857e-05
S02,window34,34,1,stress,Real Opinion,2013-02-20 19:08:00,2013-02-20 19:09:00,0.5833333333333334,0.5833333333333334,0.25,0.8333333333333334,0.0,0.0,0,0,0.0234375,0,100,0,1.0,0.8585858585858586,1.0,0.6006944444444444,0.936895434816126,0.9901379346847534,0.6906836032867432,0.6388744137571651,1,0.6037856457255726,0.5371293293438927,0.6167880711342688,-0.058888477082452206,0.6167880711342688,0,1.093726396560669,1.0,0.7245029738791812,-0.060665900049022614,1,1.0,0,0.035283107310533524,0.0631035640835762,0.041902992874383926,0.07226388156414032,0.006619887426495552,0.013476822525262833,0.21295735239982605,4.608184099197388e-06,0.0027357477229088545,0.006029387004673481,8.001774787902832,94.48795318603516,0.8177246451377869,0.0020449121948331594,0.019535373896360397,6.837027072906494,63.85017013549805,0.9434350728988647,0.0025826310738921165,0.023120753467082977,6.590674877166748,58.720855712890625,928.0,0.21295735239982605,0.1728145182132721,46212.85546875,0.2092154175043106,5.960471153259277,0.3313644230365753,0.005543659441173077,0.008694803342223167,0.6560106873512268,0.00018162473861593753
S02,window35,35,1,stress,Real Opinion,2013-02-20 19:08:30,2013-02-20 19:09:30,0.5333333333333333,0.5333333333333333,0.0,0.5333333333333333,0.0,0.0,0,0,0.022916666666666665,0,88,0,1.0,0.8850574712643678,1.0,0.679058908045977,0.956878459314024,1.0,0.6010465025901794,0.6112558624283481,1,0.6808559179279736,0.6072978240443851,0.6366720314278554,0.09892423799017028,0.6808559179279736,0,1.0161160230636597,1.0,0.7410865262999543,-0.04526314379218377,1,1.0,0,0.03408842533826828,0.06640823185443878,0.040801648050546646,0.07563609629869461,0.0067132217809557915,0.013638987205922604,0.21329578757286072,2.777203917503357e-06,0.002711552195250988,0.0060842568054795265,7.112412929534912,77.88681030273438,0.8190339207649231,0.0036882716231048107,0.018323026597499847,7.185001850128174,63.77962875366211,0.9449474811553955,0.0041446988470852375,0.022403419017791748,6.918298244476318,59.17177963256836,868.0,0.21329578757286072,0.1259135603904724,76802.3515625,0.2005855292081833,5.859065532684326,0.2848148047924042,0.005907424725592136,0.008995655924081802,0.6692235469818115,0.0001860219781519845
S02,window36,36,1,stress,Opposite Opinion,2013-02-20 19:09:00,2013-02-20 19:10:00,0.5666666666666667,0.5666666666666667,0.0,0.5666666666666667,0.0,0.0,0,0,0.02109375,0,87,0,1.0,0.8953488372093024,1.0,0.6840479651162791,0.9680364012141592,1.0,0.6943098306655884,0.6915059927045336,1,0.42052471220104665,0.3535743412038824,0.7236493732090695,-0.03764156191520462,0.7236493732090695,0,1.6137332916259766,1.0,0.7485504552479688,-0.039386248533669566,1,1.0,0,0.0350220762193203,0.058482278138399124,0.042117465287446976,0.06594113260507584,0.007095386274158955,0.011992176994681358,0.15053454041481018,3.9227306842803955e-06,0.003160947933793068,0.006622903048992157,5.2037882804870605,40.816322326660156,0.726380467414856,0.003863560501486063,0.021997297182679176,8.513023376464844,87.75403594970703,0.8147232532501221,0.004163327161222696,0.02712579071521759,7.992763042449951,79.7559585571289,889.0,0.15053454041481018,0.11255767941474915,38374.93359375,0.17260541021823883,6.028955936431885,0.25520649552345276,0.004338092636317015,0.00893983244895935,0.6292663812637329,0.00014381231449078768
S02,window37,37,1,stress,Opposite Opinion,2013-02-20 19:09:30,2013-02-20 19:10:30,0.6,0.6,0.0,0.6,0.0,0.0,0,0,0.020833333333333332,0,91,0,1.0,0.8888888888888888,1.0,0.6588541666666666,0.97983000169725,1.0,0.6692717671394348,0.6576341844710787,1,0.5127535233690164,0.4475439694367197,0.7235141846043284,-0.23461246037926256,0.7235141846043284,0,1.587976336479187,1.0,0.7495045560647305,-0.03837583290902091,1,1.0,0,0.0386662483215332,0.06687511503696442,0.04570460319519043,0.07206649333238602,0.007038355339318514,0.011297095566987991,0.11623905599117279,2.7604401111602783e-06,0.0031454479321837425,0.007128862664103508,4.440460205078125,27.897645950317383,0.819506824016571,0.00394147215411067,0.021951958537101746,7.004521369934082,61.508392333984375,0.824574887752533,0.004767696373164654,0.02666431851685047,6.402768611907959,52.28456115722656,911.0,0.11623905599117279,0.0977310836315155,42108.88671875,0.16139532625675201,6.077171325683594,0.3337477445602417,0.003925652243196964,0.00880973320454359,0.6251505017280579,0.00012762437108904123
S03,window1,1,0,normal,Baseline,2013-03-06 17:08:51,2013-03-06 17:09:51,1.0,0.0,1.0,1.0,0.0,0.0,0,0,0.021354166666666667,0,65,0,0.984375,0.875,0.984375,0.91796875,0.9593787327643205,0.37076660990715027,0.08536407351493835,0.1542470036477332,1,0.45516234777716763,0.7086255400838358,-0.21817004919528832,0.328246359668305,0.7086255400838358,0,0.3294200599193573,0.3294200599193573,0.8017466138373605,0.46249127574851046,1,0.5462819576263429,0,0.023807188495993614,0.11018567532300949,0.02720590867102146,0.12437660247087479,0.003398719010874629,0.016117818653583527,0.2981281280517578,1.2991949915885925e-06,0.000983875710517168,0.0018265997059643269,12.906002044677734,196.96316528320312,1.41336989402771,0.0016541813965886831,0.0056778439320623875,8.999773025512695,92.38691711425781,1.6807563304901123,0.0017236284911632538,0.006888640578836203,9.416446685791016,102.43685913085938,883.0,0.2981281280517578,0.24700629711151123,229471.421875,0.239589124917984,5.028818607330322,0.16818153858184814,0.02660205401480198,0.005237245932221413,0.7696009874343872,0.00025978407938964665
S03,window2,2,0,normal,Baseline,2013-03-06 17:09:21,2013-03-06 17:10:21,1.0,0.0,1.0,1.0,0.0,0.0,0,0,0.026041666666666668,0,69,0,1.0,0.9117647058823529,1.0,0.8754595588235294,0.9772154912393082,0.3477359861135483,0.12262603640556335,0.1928087545596665,1,0.1844160661685317,0.18864235903753532,-0.12158981037248494,-0.3301597568694262,0.18864235903753532,0,0.14425386488437653,0.14425386488437653,0.8434451432362959,0.6605134162185435,1,0.5462819576263429,0,0.03039884939789772,0.023627575486898422,0.03708478435873985,0.028789659962058067,0.006685935892164707,0.009146775119006634,0.12783464789390564,7.193535566329956e-06,0.003782486543059349,0.007502479944378138,4.894561290740967,44.040443420410156,0.3296029567718506,0.005929493810981512,0.023459220305085182,4.539936065673828,37.8989372253418,0.3956345021724701,0.006290328688919544,0.029121126979589462,4.421414852142334,36.32598876953125,903.0,0.12783464789390564,0.08361387252807617,17770.767578125,0.11591380834579468,6.2144269943237305,0.6967574954032898,0.0031800593715161085,0.007634697016328573,0.5703197121620178,8.366350084543228e-05
S03,window3,3,0,normal,Baseline,2013-03-06 17:09:51,2013-03-06 17:10:51,1.0,0.0,1.0,1.0,0.0,0.0,0,0,0.02578125,0,71,0,1.0,0.9285714285714286,1.0,0.8448660714285714,0.9755959771636123,0.35868434607982635,0.3374505341053009,0.46899426784783743,1,0.1750972835810263,0.020715662618208237,-0.33052504940690236,-0.4498258807190792,0.1750972835810263,0,0.2121671885251999,0.2121671885251999,0.8428906457251352,0.5999743208570885,1,0.5462819576263429,0,0.03018503449857235,0.02335556223988533,0.03635013476014137,0.028090039268136024,0.006165098864585161,0.008682876825332642,0.12210853397846222,2.868473529815674e-07,0.0035393834114074707,0.006198581773787737,5.196276664733887,47.303226470947266,0.3148217499256134,0.004760777577757835,0.02299736812710762,3.533064126968384,26.318201065063477,0.36290982365608215,0.004975680261850357,0.027788035571575165,3.3621411323547363,22.87723159790039,928.0,0.12210853397846222,0.08257577568292618,425691.6875,0.10523593425750732,6.239922523498535,0.7622154355049133,0.003215052420273423,0.006991308648139238,0.5663960576057434,7.539235230069607e-05
S03,window4,4,0,normal,Baseline,2013-03-06 17:10:21,2013-03-06 17:11:21,1.0,0.0,1.0,1.0,0.0,0.0,0,0,0.02578125,0,71,0,1.0,0.9285714285714286,1.0,0.8366071428571429,0.9788917862441132,0.27723583579063416,0.40000343322753906,0.6305367378843147,1,-0.19303715277081224,0.05042867924906207,-0.23741383691416434,-0.3118560710064307,0.05042867924906207,0,0.5691249370574951,0.5691249370574951,0.8081836135960558,0.2234783970226204,1,0.5462819576263429,0,0.03080880455672741,0.034873317927122116,0.03677535057067871,0.040872130542993546,0.005966546945273876,0.010270141996443272,0.17739981412887573,3.5669654607772827e-07,0.0031348704360425472,0.005887613631784916,7.640263080596924,97.3430404663086,0.6172953248023987,0.0036152813117951155,0.02092798799276352,7.25565242767334,94.34677124023438,0.700528621673584,0.003848543856292963,0.025678526610136032,6.810259819030762,83.49199676513672,918.0,0.17739981412887573,0.09515652805566788,497340.96875,0.12950730323791504,6.115433692932129,0.33013778924942017,0.0043168081901967525,0.007177883293479681,0.6008554100990295,0.00010547581041464582
S03,window5,5,0,normal,Baseline,2013-03-06 17:10:51,2013-03-06 17:11:51,1.0,0.0,1.0,1.0,0.0,0.0,0,0,0.026041666666666668,0,70,0,1.0,1.0,1.0,0.8614130434782609,0.9884012626699343,0.1930592730641365,0.20141209661960602,0.38353309015112036,1,-0.30164425658934557,-0.03767581827637123,0.02282015992974312,-0.02172678360086008,0.02282015992974312,0,0.15299488604068756,0.15299488604068756,0.8812208901969116,0.6423702478928301,1,0.5462819576263429,0,0.031860463321208954,0.025133710354566574,0.03863964229822159,0.03161536157131195,0.006779180373996496,0.010538811795413494,0.14314955472946167,1.0896474123001099e-06,0.003546830266714096,0.006973574869334698,5.125607490539551,43.28375244140625,0.18179261684417725,0.0027813874185085297,0.022033093497157097,1.95733642578125,4.537929534912109,0.25691765546798706,0.0030020202975720167,0.02692747861146927,2.1710216999053955,6.382568359375,893.0,0.14314955472946167,0.09007362276315689,131372.359375,0.14022229611873627,6.106381893157959,1.4359657764434814,0.003826130647212267,0.00820661149919033,0.6046026945114136,0.00011106656165793538
S03,window6,6,0,normal,Baseline,2013-03-06 17:11:21,2013-03-06 17:12:21,1.0,0.0,1.0,1.0,0.0,0.0,0,0,0.02109375,0,69,0,0.9852941176470589,0.8823529411764706,0.9852941176470589,0.8550091911764706,0.9641296909754971,0.26377609372138977,0.2008076012134552,0.35956227201667534,1,0.49750216039233264,0.2337752343972126,0.17643602872069133,-0.09711224610603822,0.49750216039233264,0,0.2632902264595032,0.2632902264595032,0.8129098846466989,0.5054509255970714,1,0.5462819576263429,0,0.02640124037861824,0.15837378799915314,0.030063942074775696,0.17461273074150085,0.003662701463326812,0.01851596124470234,0.33480286598205566,4.0675513446331024e-07,0.0008551124483346939,0.0015853168442845345,11.166996002197266,150.70590209960938,2.0048739910125732,0.0010017793392762542,0.004985467065125704,10.48349666595459,119.14704895019531,2.339676856994629,0.0010121905943378806,0.00606379983946681,10.352141380310059,116.90048217773438,929.0,0.33480286598205566,0.2004791498184204,823106.6875,0.33096203207969666,4.796107769012451,0.1355820894241333,0.028585363179445267,0.0059656426310539246,0.8135007619857788,0.0003428408526815474
S03,window7,7,0,normal,Baseline,2013-03-06 17:11:51,2013-03-06 17:12:51,1.0,0.0,1.0,1.0,0.0,0.0,0,0,0.021354166666666667,0,57,0,0.9107142857142857,0.7321428571428571,0.9107142857142857,1.0404575892857142,0.8657704867252701,0.4806913137435913,0.27693426609039307,0.3819697759249609,1,0.44272913164912703,0.3050683362353789,0.19559236495934207,-0.14523693629798773,0.44272913164912703,0,0.5783963203430176,0.5783963203430176,0.6768915139832793,0.160004844059912,1,0.5462819576263429,0,0.026225224137306213,0.08233631402254105,0.03035973757505417,0.0947016030550003,0.00413451436907053,0.017563998699188232,0.3934672474861145,1.6082776710391045e-06,0.0008398415520787239,0.0019892409909516573,13.948104858398438,271.66339111328125,0.7625477910041809,0.0002682670019567013,0.0052575417794287205,5.169540882110596,29.60732078552246,0.9519487023353577,0.00029566933517344296,0.006314687896519899,5.395025730133057,33.6186637878418,917.0,0.3934672474861145,0.12135080993175507,244651.3125,0.29856446385383606,5.058851718902588,0.34252193570137024,0.020770663395524025,0.00670554069802165,0.8100380301475525,0.00030849408358335495
S03,window8,8,0,normal,Baseline,2013-03-06 17:12:21,2013-03-06 17:13:21,1.0,0.0,1.0,1.0,0.0,0.0,0,0,0.021354166666666667,0,69,0,1.0,0.8823529411764706,1.0,0.8501838235294118,0.9408701653011375,1.0,0.17211031913757324,0.22094841063053675,1,0.5259058605178784,0.34183333281871453,0.3610280757753228,0.23153237750907313,0.5259058605178784,0,0.5310533046722412,0.5310533046722412,0.7820968955937054,0.41887011900598436,1,0.5462819576263429,0,0.030104318633675575,0.10249806195497513,0.035432394593954086,0.1208970844745636,0.005328076891601086,0.0217679925262928,0.33661115169525146,5.639158189296722e-07,0.0009102444164454937,0.0021720866207033396,8.978278160095215,103.1282730102539,0.9559937715530396,0.0006365839508362114,0.006599554792046547,5.625584602355957,34.18723678588867,1.1934798955917358,0.0007273998344317079,0.0078892782330513,5.794321060180664,37.2633056640625,882.0,0.33661115169525146,0.27921682596206665,596917.375,0.44297027587890625,4.877471446990967,0.2762346863746643,0.0200584065169096,0.008903564885258675,0.834585428237915,0.00047384548815898597
S03,window9,9,1,stress,Stroop,2013-03-06 17:13:21,2013-03-06 17:14:21,0.9333333333333333,0.9333333333333333,0.06666666666666667,1.0,0.0,0.0,0,0,0.021875,0,76,0,0.92,0.48,0.92,0.790625,0.6086419925134243,0.6535002589225769,1.3284142017364502,0.7628973423658155,1,0.8486268952638886,0.7942397163377956,0.7446659073073276,0.32499819135231395,0.8486268952638886,0,1.9890096187591553,1.0,0.4585925977540274,-0.3564644371409996,1,0.5462819576263429,0,0.03739382326602936,0.09346835315227509,0.04464612156152725,0.10565643012523651,0.007252296898514032,0.019585246220231056,0.24349527060985565,8.493661880493164e-06,0.0017132777720689774,0.004183803219348192,6.246786594390869,51.03160858154297,1.3062078952789307,0.0008166801417246461,0.01066982839256525,8.083342552185059,89.75906372070312,1.3592363595962524,0.0009352859342470765,0.012791275046765804,6.955072402954102,67.94761657714844,939.0,0.24349527060985565,0.2108425498008728,28667.87890625,0.4095708429813385,5.5017828941345215,0.3514951169490814,0.008831748738884926,0.011206082068383694,0.7717657089233398,0.00038358187885023654
S03,window10,10,1,stress,Stroop,2013-03-06 17:13:51,2013-03-06 17:14:51,1.0,1.0,0.0,1.0,0.0,0.0,0,0,0.0234375,0,79,0,0.9487179487179487,0.6538461538461539,0.9487179487179487,0.7566105769230769,0.6722599256982398,0.7335255444049835,1.2905555963516235,0.805106826472121,1,0.5487449880311703,0.6869479995598948,0.2569156419061788,-0.04707495574158471,0.6869479995598948,0,1.944116473197937,1.0,0.5529600289915232,-0.2626561965767583,1,0.5462819576263429,0,0.03664519637823105,0.06308258324861526,0.04453211650252342,0.07934572547674179,0.007886919192969799,0.02519138716161251,0.5783061981201172,4.08245250582695e-06,0.00237629609182477,0.005714208818972111,13.842631340026855,276.11053466796875,0.7538301348686218,0.0016045180382207036,0.013972101733088493,4.702747344970703,34.11675262451172,0.7897697687149048,0.0017510164761915803,0.017384186387062073,4.692584037780762,30.394107818603516,984.0,0.5783061981201172,0.19793543219566345,141656.5625,0.6856605410575867,5.607941627502441,0.5065680146217346,0.011384242214262486,0.011671548709273338,0.7391787767410278,0.0006346059963107109
S03,window11,11,1,stress,Stroop,2013-03-06 17:14:21,2013-03-06 17:15:21,0.8,0.8,0.2,1.0,0.0,0.0,0,0,0.023697916666666666,0,82,0,0.9876543209876543,0.5925925925925926,0.9876543209876543,0.7316743827160493,0.7162833793534575,0.7326511740684509,1.0632891654968262,0.7529963522668056,1,0.7247821460748923,0.8306579715403506,0.45531999231858533,-0.1365453001518246,0.8306579715403506,0,1.550992727279663,1.0,0.5494529150406052,-0.2624577196692143,1,0.5462819576263429,0,0.03640339896082878,0.07614544034004211,0.04321766644716263,0.08939183503389359,0.006814265623688698,0.019836431369185448,0.3112260699272156,1.0561197996139526e-06,0.0020733224228024483,0.00435420498251915,8.260716438293457,90.18718719482422,0.8510379195213318,0.0016406797803938389,0.0128027880564332,5.739142894744873,43.74826431274414,0.9864770174026489,0.001652923645451665,0.015181586146354675,5.356703281402588,37.199649810791016,967.0,0.3112260699272156,0.22453829646110535,294688.25,0.42540091276168823,5.573540687561035,0.46594488620758057,0.009797321632504463,0.010186663828790188,0.746678352355957,0.0003934840206056833
S03,window12,12,0,normal,First Rest,2013-03-06 17:15:21,2013-03-06 17:16:21,1.0,0.0,1.0,1.0,0.0,0.0,0,0,0.021614583333333333,0,78,0,1.0,0.6623376623376623,1.0,0.7731331168831169,0.7432771922563322,1.0,0.30858999490737915,0.4481500781657113,1,0.595762791956268,0.6564201887227679,0.22778041640781518,0.6294326881135012,0.6564201887227679,0,0.33486148715019226,0.33486148715019226,0.6544320738969455,0.49965910961518945,1,0.5462819576263429,0,0.0422542542219162,0.1036280021071434,0.05009875446557999,0.11739455908536911,0.007844502106308937,0.017854908481240273,0.2797430753707886,4.284083843231201e-07,0.0032066404819488525,0.006962355226278305,8.358860969543457,97.997314453125,1.7156825065612793,0.003081832081079483,0.018904708325862885,10.160347938537598,131.38369750976562,1.8398168087005615,0.003218218917027116,0.023530758917331696,9.783516883850098,121.33392333984375,911.0,0.2797430753707886,0.23804348707199097,652982.25,0.3464842736721039,5.8505964279174805,0.18592560291290283,0.006784471217542887,0.010570703074336052,0.6730254888534546,0.0003187977708876133
S03,window13,13,0,normal,First Rest,2013-03-06 17:15:51,2013-03-06 17:16:51,1.0,0.0,1.0,1.0,0.0,0.0,0,0,0.021354166666666667,0,77,0,1.0,0.6710526315789473,1.0,0.7728207236842105,0.9417465035306066,1.0,0.16247454285621643,0.28139656070870245,1,0.1420940423513343,0.1788155687109634,-0.5024623074025836,-0.5017780030356667,0.1788155687109634,0,0.15717214345932007,0.15717214345932007,0.735227789344829,0.7295802718970158,1,0.5462819576263429,0,0.03824112191796303,0.05399744212627411,0.04624531418085098,0.06324546784162521,0.00800419133156538,0.013650268316268921,0.22549623250961304,4.371628165245056e-06,0.0039598047733306885,0.00805489718914032,7.130451679229736,84.50443267822266,0.6579869985580444,0.002335531171411276,0.024304671213030815,7.704197883605957,74.9071273803711,0.7839125990867615,0.0027689477428793907,0.029847167432308197,7.4493408203125,71.13262176513672,946.0,0.22549623250961304,0.1349354386329651,51581.75,0.23687545955181122,6.132896900177002,0.4445880353450775,0.004131453577429056,0.009768075309693813,0.6095399856567383,0.00018632980936672539
S03,window14,14,0,normal,First Rest,2013-03-06 17:16:21,2013-03-06 17:17:21,1.0,0.0,1.0,1.0,0.0,0.0,0,0,0.021354166666666667,0,72,0,1.0,0.676056338028169,1.0,0.8329665492957746,0.9326626952264986,1.0,0.07897413522005081,0.25586242834809797,1,0.06528321017220201,0.10227493435115133,-0.1994808215535491,-0.2910236535822477,0.10227493435115133,0,0.0985579863190651,0.0985579863190651,0.7403655451473106,0.7874245888960103,1,0.5462819576263429,0,0.03653509169816971,0.06069118157029152,0.043441370129585266,0.06530846655368805,0.00690627982839942,0.010148038156330585,0.091552734375,7.808208465576172e-06,0.0035639554262161255,0.0065449681133031845,3.4701571464538574,15.66303539276123,1.1371917724609375,0.002399143995717168,0.02157166786491871,11.791296005249023,180.62796020507812,1.143561601638794,0.002522100228816271,0.02626827545464039,10.63974380493164,153.793212890625,957.0,0.091552734375,0.07246561348438263,11725.1904296875,0.1442001610994339,6.185895919799805,0.141081303358078,0.0033010607585310936,0.008383222855627537,0.6062933206558228,0.0001029826671583578
S03,window15,15,0,normal,First Rest,2013-03-06 17:16:51,2013-03-06 17:17:51,1.0,0.0,1.0,1.0,0.0,0.0,0,0,0.02421875,0,74,0,1.0,0.684931506849315,1.0,0.8110017123287672,0.8443625008977177,1.0,0.06718827039003372,0.22146951537258988,1,-0.11036970979997451,0.20673332207056155,-0.20236769333349885,-0.2814536472901501,0.20673332207056155,0,0.09474215656518936,0.09474215656518936,0.7178071373525224,0.7718279207140346,1,0.5462819576263429,0,0.034575555473566055,0.035104118287563324,0.04191749915480614,0.04329551011323929,0.007341941352933645,0.012224795296788216,0.18480920791625977,1.817941665649414e-06,0.004069768823683262,0.007084940560162067,6.392942905426025,65.81920623779297,0.5657492876052856,0.004750189371407032,0.023856699466705322,7.697834014892578,93.85816955566406,0.7505584955215454,0.005188708193600178,0.029840528964996338,8.026433944702148,105.44447326660156,970.0,0.18480920791625977,0.13263565301895142,101658.4921875,0.19724923372268677,6.171125411987305,0.438694030046463,0.0038891080766916275,0.00887448713183403,0.6037461757659912,0.0001494456228101626
S03,window16,16,0,normal,First Rest,2013-03-06 17:17:21,2013-03-06 17:18:21,1.0,0.0,1.0,1.0,0.0,0.0,0,0,0.02421875,0,84,0,1.0,0.6506024096385542,1.0,0.7172439759036144,0.7300553422922245,1.0,0.07655580341815948,0.12141740489838458,1,-0.06576053185990319,0.03068701567416254,-0.187307114648741,-0.2571242645355677,0.03068701567416254,0,0.12124078720808029,0.12124078720808029,0.6671334878222811,0.7064537712565422,1,0.5462819576263429,0,0.03448822349309921,0.028770897537469864,0.04184970632195473,0.03499726206064224,0.007361484691500664,0.010320700705051422,0.11600106954574585,1.426786184310913e-06,0.00403892807662487,0.007350223604589701,4.3130269050598145,30.552034378051758,0.6122287511825562,0.0062073334120213985,0.025803666561841965,9.110295295715332,168.4625701904297,0.728229820728302,0.007023692596703768,0.031346939504146576,8.586872100830078,153.4224090576172,958.0,0.11600106954574585,0.11498621851205826,81302.3515625,0.15395857393741608,6.2500433921813965,0.3344404697418213,0.003095580032095313,0.008549602702260017,0.5800920724868774,0.0001065168617060408
S03,window17,17,0,normal,First Rest,2013-03-06 17:17:51,2013-03-06 17:18:51,1.0,0.0,1.0,1.0,0.0,0.0,0,0,0.020572916666666666,0,90,0,1.0,0.5056179775280899,1.0,0.6666081460674157,0.6466964391844388,1.0,0.11777541041374207,0.266284523189161,1,0.04178857791310404,-0.16253937583809397,-0.20783268463263105,-0.36889120957638794,0.04178857791310404,0,0.13478398323059082,0.13478398323059082,0.5827777244435086,0.6285755198239458,1,0.5462819576263429,0,0.041774000972509384,0.11291947215795517,0.049412041902542114,0.12922850251197815,0.0076380386017262936,0.021348169073462486,0.3033280372619629,3.6265701055526733e-06,0.0031597698107361794,0.005914948880672455,8.964292526245117,96.07453155517578,1.8572171926498413,0.0050842976197600365,0.018887367099523544,8.631664276123047,97.3352279663086,2.0824060440063477,0.006074171978980303,0.023750796914100647,8.437307357788086,91.78494262695312,956.0,0.3033280372619629,0.279072105884552,83640.46875,0.4914642870426178,5.754466533660889,0.18481437861919403,0.009217485785484314,0.010423189029097557,0.6816073060035706,0.00045574433170259
S03,window18,18,0,normal,First Rest,2013-03-06 17:18:21,2013-03-06 17:19:21,1.0,0.0,1.0,1.0,0.0,0.0,0,0,0.021354166666666667,0,85,0,1.0,0.6309523809523809,1.0,0.7012648809523809,0.625687529149108,0.8167825043201447,0.25232037901878357,0.515372589890568,1,0.17335839383273616,0.40857174963241427,0.33058582552698496,-0.13082040100374379,0.40857174963241427,0,0.2562307119369507,0.2562307119369507,0.6144641399319897,0.49367251071607676,1,0.5462819576263429,0,0.042556650936603546,0.07469287514686584,0.0506853386759758,0.08782874047756195,0.008128688670694828,0.018477194011211395,0.2682027816772461,1.3560056686401367e-06,0.0030869655311107635,0.006675570271909237,7.035023212432861,68.99268341064453,0.8226852416992188,0.003259520512074232,0.017154255881905556,4.6000590324401855,29.63655662536621,1.0908880233764648,0.003628161270171404,0.021198498085141182,4.751314640045166,33.45261764526367,971.0,0.2682027816772461,0.20654544234275818,197788.828125,0.3956652581691742,5.864056587219238,0.5101080536842346,0.006351093295961618,0.01123049110174179,0.6900821328163147,0.0003414066741243005
S03,window19,19,1,stress,TMCT,2013-03-06 17:19:21,2013-03-06 17:20:21,0.9333333333333333,0.9333333333333333,0.06666666666666667,1.0,0.0,0.0,0,0,0.020572916666666666,0,78,0,0.974025974025974,0.6103896103896104,0.974025974025974,0.7637987012987013,0.7700795057175669,0.7897236943244934,0.24867483973503113,0.5169359041167274,1,0.5048939119309154,0.36905391803399784,0.5102944852775846,-0.294811893516242,0.5102944852775846,0,0.31953707337379456,0.31953707337379456,0.6380311833389296,0.4483358045587984,1,0.5462819576263429,0,0.0362246111035347,0.08557578921318054,0.042030394077301025,0.09706120938062668,0.005805781576782465,0.016647104173898697,0.1894679069519043,6.332993507385254e-07,0.0014027059078216553,0.0032575451768934727,6.437503814697266,50.25776672363281,0.8043316602706909,0.0014053352642804384,0.007654245942831039,4.252731800079346,21.405094146728516,0.8318566083908081,0.0015011178329586983,0.009007491171360016,4.024166584014893,18.13616180419922,965.0,0.1894679069519043,0.16681522130966187,299175.90625,0.29995399713516235,5.474348068237305,0.502326250076294,0.009556055068969727,0.009012702852487564,0.7753791213035583,0.00027712606242857873
S03,window20,20,1,stress,TMCT,2013-03-06 17:19:51,2013-03-06 17:20:51,1.0,1.0,0.0,1.0,0.0,0.0,0,0,0.021614583333333333,0,100,0,1.0,0.5151515151515151,1.0,0.5988005050505051,0.693486374953822,0.916156530380249,0.14563608169555664,0.43095362167795725,1,0.21077747278942985,0.055080306854023806,-0.20469333289338565,-0.2946457309838001,0.21077747278942985,0,0.1435774564743042,0.1435774564743042,0.5997487728993223,0.6133787244046681,1,0.5462819576263429,0,0.04618973657488823,0.33891761302948,0.05227218195796013,0.3553799092769623,0.006082447245717049,0.019561171531677246,0.4103670120239258,5.373731255531311e-07,0.0029119402170181274,0.00546106044203043,14.972899436950684,266.4736022949219,6.780735015869141,0.003387049539014697,0.016377469524741173,16.855844497680664,297.88214111328125,7.191102027893066,0.0036205879878252745,0.020422957837581635,16.750215530395508,295.7865905761719,1002.0,0.4103670120239258,0.3282768726348877,763653.75,0.4204748570919037,5.870097637176514,0.05194404721260071,0.011320037767291069,0.007816504687070847,0.6419047117233276,0.00038263940950855613
S03,window21,21,1,stress,TMCT,2013-03-06 17:20:21,2013-03-06 17:21:21,1.0,1.0,0.0,1.0,0.0,0.0,0,0,0.022395833333333334,0,93,0,1.0,0.6304347826086957,1.0,0.6394361413043478,0.6763511549441541,0.9695445895195007,0.16153813898563385,0.46951537258989057,1,0.2003141923658995,-0.0466499306163329,-0.005967022763302285,-0.1701850032373454,0.2003141923658995,0,0.155660942196846,0.155660942196846,0.6395131653070399,0.6449434287016764,1,0.5462819576263429,0,0.027619628235697746,0.18119359016418457,0.032511357218027115,0.19597464799880981,0.0048917303793132305,0.015527341514825821,0.4619741439819336,2.129003405570984e-06,0.002504227217286825,0.0047860099002718925,25.6281681060791,745.763427734375,5.668804168701172,0.005103588569909334,0.015521829947829247,30.142107009887695,933.0780639648438,6.1307783126831055,0.005477211903780699,0.019436519593000412,30.095352172851562,931.1768188476562,1004.0,0.4619741439819336,0.08394443988800049,216990.796875,0.26608747243881226,6.067497253417969,0.02225545048713684,0.011031434871256351,0.005865144543349743,0.5988988280296326,0.0002410983433946967
S03,window22,22,1,stress,TMCT,2013-03-06 17:20:51,2013-03-06 17:21:51,0.7,0.7,0.3,1.0,0.0,0.0,0,0,0.02109375,0,84,0,0.9759036144578314,0.5421686746987951,0.9759036144578314,0.6993599397590361,0.7236855517849811,0.8821684122085571,0.3190375566482544,0.5429911412193851,1,-0.06502442514329829,0.5400241042234408,-0.6990377999283374,-0.11295474934909058,0.5400241042234408,0,0.7040309906005859,0.7040309906005859,0.5587507592465201,0.055263825699003455,1,0.5462819576263429,0,0.035019055008888245,0.06752222031354904,0.041600875556468964,0.0795430988073349,0.006581822410225868,0.01609199307858944,0.18775638937950134,2.6971101760864258e-06,0.0016837459988892078,0.003939340356737375,5.821868419647217,45.92849349975586,0.6755770444869995,0.0021276930347085,0.007915069349110126,4.406451225280762,25.152868270874023,0.8483131527900696,0.002497931942343712,0.009868504479527473,4.499386787414551,27.3007755279541,950.0,0.18775638937950134,0.17273610830307007,69613.9140625,0.2871590256690979,5.614581108093262,0.6105383634567261,0.007344849873334169,0.010019443929195404,0.7603438496589661,0.00025895226281136274
S03,window23,23,0,normal,Second Rest,2013-03-06 17:21:51,2013-03-06 17:22:51,1.0,0.0,1.0,1.0,0.0,0.0,0,0,0.022135416666666668,0,83,0,1.0,0.6219512195121951,1.0,0.7290396341463414,0.7883560087746421,1.0,0.30474933981895447,0.4940072954663887,1,0.21082200794562828,0.3009878420633216,0.34184155135818395,0.06085447074466896,0.34184155135818395,0,0.2111601084470749,0.2111601084470749,0.6641712795925632,0.6225142596002442,1,0.5462819576263429,0,0.0401749424636364,0.054604802280664444,0.04789656028151512,0.06117728352546692,0.007721618749201298,0.01158900186419487,0.17430010437965393,4.684552550315857e-06,0.0037643155083060265,0.00794257316738367,5.3972649574279785,54.09941864013672,0.7838342785835266,0.004957470111548901,0.024817408993840218,6.033288955688477,56.70702362060547,0.8010528087615967,0.005630934610962868,0.030637213960289955,5.310916900634766,42.80661392211914,956.0,0.17430010437965393,0.10148674249649048,37207.41796875,0.1853955090045929,6.197787761688232,0.4107811748981476,0.003402253845706582,0.009278991259634495,0.6002164483070374,0.00013430496619548649
S03,window24,24,0,normal,Second Rest,2013-03-06 17:22:21,2013-03-06 17:23:21,1.0,0.0,1.0,1.0,0.0,0.0,0,0,0.023177083333333334,0,95,0,1.0,0.46808510638297873,1.0,0.6368018617021277,0.7170161488536949,1.0,0.36722859740257263,0.590411672746222,1,0.3857646370951525,0.04273028642406122,-0.07368690487231985,-0.2460661380622194,0.3857646370951525,0,0.32182812690734863,0.32182812690734863,0.5701560745185652,0.44785144222096873,1,0.5462819576263429,0,0.04410722106695175,0.058544207364320755,0.05281601846218109,0.06642697006464005,0.00870879739522934,0.012808756902813911,0.12863034009933472,9.80868935585022e-06,0.004325682297348976,0.00859280489385128,3.9316606521606445,23.07196617126465,0.710217297077179,0.0050943633541464806,0.028116662055253983,5.955688953399658,47.6182861328125,0.7124918699264526,0.0061689745634794235,0.0334533266723156,5.497438907623291,40.78029251098633,957.0,0.12863034009933472,0.11761349439620972,13113.9169921875,0.22959138453006744,6.18726921081543,0.5030575394630432,0.0033053341321647167,0.010578760877251625,0.6067259311676025,0.00016406425856985152
S03,window25,25,0,normal,Second Rest,2013-03-06 17:22:51,2013-03-06 17:23:51,1.0,0.0,1.0,1.0,0.0,0.0,0,0,0.022135416666666668,0,89,0,1.0,0.6136363636363636,1.0,0.6651278409090909,0.7741142797837498,1.0,0.34378376603126526,0.5492443981240229,1,0.2696198000191435,0.15652719164292353,0.059158036844273724,-0.3078969704206968,0.2696198000191435,0,0.31844907999038696,0.31844907999038696,0.6458439213906316,0.5091703990464596,1,0.5462819576263429,0,0.04133446514606476,0.054434530436992645,0.04964089021086693,0.06108896806836128,0.00830642506480217,0.012234149500727654,0.14741340279579163,9.782612323760986e-06,0.004045747686177492,0.008951467461884022,4.41337776184082,32.030704498291016,0.8283774256706238,0.0044741882011294365,0.0268905870616436,6.648825168609619,70.72329711914062,0.8391530513763428,0.004720135126262903,0.0332697294652462,5.767057418823242,53.0109977722168,924.0,0.14741340279579163,0.12205690890550613,15068.919921875,0.20205210149288177,6.1584954261779785,0.37535470724105835,0.0034299760591238737,0.010045803152024746,0.6040462851524353,0.000149674408021383
S03,window26,26,0,normal,Second Rest,2013-03-06 17:23:21,2013-03-06 17:24:21,1.0,0.0,1.0,1.0,0.0,0.0,0,0,0.021614583333333333,0,89,0,1.0,0.6022727272727273,1.0,0.6754261363636364,0.7946805413411326,1.0,0.18618425726890564,0.40020844189682125,1,0.11139067737444586,0.3103074912673904,-0.09052385626081359,-0.23131106952091102,0.3103074912673904,0,0.1532570868730545,0.1532570868730545,0.6639875446241253,0.6760948666440469,1,0.5462819576263429,0,0.03971061110496521,0.05266789719462395,0.047182995826005936,0.060660962015390396,0.007472386583685875,0.011402142234146595,0.1978762149810791,4.084780812263489e-06,0.004103945568203926,0.007781985215842724,6.714914321899414,86.73078918457031,0.9359115362167358,0.0037541494239121675,0.02618800289928913,8.27509880065918,107.56735229492188,1.133787751197815,0.004598417319357395,0.03160078823566437,8.726357460021973,123.68476104736328,956.0,0.1978762149810791,0.07626616954803467,48442.30859375,0.17766821384429932,6.211909294128418,0.2699691951274872,0.0034815713297575712,0.008837907575070858,0.5907526016235352,0.00013000884791836143
S03,window27,27,0,normal,Second Rest,2013-03-06 17:23:51,2013-03-06 17:24:51,1.0,0.0,1.0,1.0,0.0,0.0,0,0,0.021875,0,84,0,1.0,0.6746987951807228,1.0,0.7191265060240963,0.9255567016265055,1.0,0.1422208696603775,0.3892652423137051,1,-0.3598580044443927,0.23459840079438188,-0.16593405215823237,-0.3434802699817163,0.23459840079438188,0,0.12945614755153656,0.12945614755153656,0.7346009138050871,0.7543426664093067,1,0.5462819576263429,0,0.038137152791023254,0.056483469903469086,0.04567994177341461,0.06622500717639923,0.007542789448052645,0.01319215726107359,0.23623335361480713,1.7600134015083313e-05,0.0033854730427265167,0.0075209978967905045,7.412652015686035,99.83699798583984,1.1173322200775146,0.00453215604647994,0.02489529922604561,10.550206184387207,167.30923461914062,1.3535655736923218,0.004763002507388592,0.029880419373512268,10.849103927612305,180.8346710205078,974.0,0.23623335361480713,0.09815716743469238,13422.2470703125,0.22492259740829468,6.122195243835449,0.21417605876922607,0.004167265724390745,0.009476816281676292,0.627558708190918,0.00017403301899321377
S03,window28,28,0,normal,Second Rest,2013-03-06 17:24:21,2013-03-06 17:25:21,1.0,0.0,1.0,1.0,0.0,0.0,0,0,0.022916666666666665,0,73,0,1.0,0.8888888888888888,1.0,0.8285590277777778,0.9757086940810791,1.0,0.10052371025085449,0.3236060448150078,1,-0.00039712985821528494,0.07506528023071084,0.02628567520086602,-0.09677330267016852,0.07506528023071084,0,0.1080036461353302,0.1080036461353302,0.8374677991663462,0.8525901940516063,1,0.5462819576263429,0,0.03273721784353256,0.024559954181313515,0.039862602949142456,0.030224362388253212,0.00712538743391633,0.01023434940725565,0.11056773364543915,1.862645149230957e-07,0.003568048123270273,0.007935617119073868,4.330911636352539,29.667972564697266,0.2894132137298584,0.005786553490906954,0.02372235432267189,2.9313743114471436,16.68663787841797,0.3130093216896057,0.005991848185658455,0.029887894168496132,2.7279813289642334,13.473847389221191,936.0,0.11056773364543915,0.10201963782310486,593606.0,0.14556021988391876,6.200799942016602,0.9275528192520142,0.0032724577467888594,0.008446312509477139,0.5920581817626953,0.0001047419136739336
S03,window29,29,0,normal,Second Rest,2013-03-06 17:24:51,2013-03-06 17:25:51,1.0,0.0,1.0,1.0,0.0,0.0,0,0,0.022916666666666665,0,74,0,1.0,0.863013698630137,1.0,0.8071489726027398,0.9719034640770337,1.0,0.14608028531074524,0.39082855653986454,1,-0.16060023922134858,-0.013697779844206405,0.19039592829023638,-0.25520118822135734,0.19039592829023638,0,0.14547845721244812,0.14547845721244812,0.82222867295392,0.8064015183958513,1,0.5462819576263429,0,0.03921825438737869,0.054204970598220825,0.047178324311971664,0.0643075481057167,0.007960070855915546,0.014074958860874176,0.2853424549102783,5.453824996948242e-06,0.0039641521871089935,0.007894987240433693,9.672041893005371,164.8640594482422,0.8826460838317871,0.006288290023803711,0.026088401675224304,8.47396469116211,100.48362731933594,1.1679885387420654,0.00803378876298666,0.03184793144464493,9.131662368774414,124.5241928100586,933.0,0.2853424549102783,0.10045009851455688,52319.6953125,0.24394887685775757,6.121867656707764,0.2565074563026428,0.0044228448532521725,0.009681024588644505,0.6074473857879639,0.00019810446246992797
S03,window30,30,0,normal,Second Rest,2013-03-06 17:25:21,2013-03-06 17:26:21,1.0,0.0,1.0,1.0,0.0,0.0,0,0,0.022135416666666668,0,73,0,0.9722222222222222,0.8194444444444444,0.9722222222222222,0.8070746527777778,0.8918965536086733,1.0,0.2964506447315216,0.5476810838978635,1,0.05431565086031946,0.2849898881336135,0.3402407944200155,-0.2447123018807296,0.3402407944200155,0,0.33115294575691223,0.33115294575691223,0.7566758937291329,0.5820989704230338,1,0.5462819576263429,0,0.037164073437452316,0.07603975385427475,0.0447971485555172,0.08893343806266785,0.007633076515048742,0.020373141393065453,0.30725905299186707,2.8463546186685562e-06,0.001450815936550498,0.003870236687362194,6.28875732421875,62.19443130493164,0.8454115986824036,0.0015371172921732068,0.008526860736310482,4.949080944061279,37.94221115112305,0.9292237162590027,0.0017258933512493968,0.010114336386322975,4.255863666534424,27.558422088623047,938.0,0.30725905299186707,0.1813739687204361,107948.265625,0.4439823627471924,5.43093729019165,0.5976769924163818,0.008660855703055859,0.012172579765319824,0.7965072989463806,0.0004150648892391473
S03,window31,31,1,stress,Real Opinion,2013-03-06 17:26:21,2013-03-06 17:27:21,0.5666666666666667,0.5666666666666667,0.11666666666666667,0.6833333333333333,0.0,0.0,0,0,0.020833333333333332,0,92,0,0.989010989010989,0.6043956043956044,0.989010989010989,0.6504120879120879,0.6586444892975847,0.8696922659873962,0.44392338395118713,0.5888483585200626,1,-0.33502863379207287,-0.21523769826227562,0.17629926363881115,-0.42989100904071564,0.17629926363881115,0,0.7737810611724854,0.7737810611724854,0.5597756802324665,-0.012575993230361071,1,0.5462819576263429,0,0.04363042861223221,0.08033889532089233,0.05167561396956444,0.09288937598466873,0.008045184426009655,0.01698809489607811,0.3116161823272705,4.935543984174728e-06,0.003120649605989456,0.007266093976795673,8.719839096069336,121.42572784423828,0.9994524121284485,0.0028830531518906355,0.02277274616062641,6.4992756843566895,59.939273834228516,1.2867971658706665,0.0030708941631019115,0.02827114798128605,6.663538455963135,64.15396118164062,979.0,0.3116161823272705,0.1795419156551361,63137.1484375,0.34590065479278564,5.9774885177612305,0.3710070848464966,0.005575887393206358,0.010737992823123932,0.6666736602783203,0.0002885953872464597
