subject,window,window_index,status,status_name,label_major,phase,t_start_sec,t_end_sec,major_ratio,subject_total_duration_sec,task4_duration_sec,bvp_missing_ratio,acc_missing_ratio,missing_flag,flatline_flag,clipping_ratio,clipping_flag,n_peaks,peak_sparse_flag,ibi_pass_ratio,valid_beat_ratio,ibi_plausibility,ibi_mean_sec,median_template_corr,notch_foot_peak_detectability,acc_diff_mean,acc_diff_exceed_ratio,acc_diff_flag,psd_corr_x,psd_corr_y,psd_corr_z,psd_corr_mag,psd_corr_max,psd_corr_flag,motion_score_raw,motion_score,SQI_stress_basic,SQI_stress_morph,hard_reject,motion_threshold_subject_p80,qc_relaxed_pass,TPV22,TPV9,TPV4,TPV2,TPV0,TPV28,TPV8,TPV19,TPV14,TPV26,TPV11
subject_01,window1,1,0,normal,0,Rest1,0.0,60.0,1.0,2505.765625,585.765625,0.0,0.0,0,0,0.02109375,0,76,0,0.9866666666666667,0.72,0.9866666666666667,0.7785416666666667,0.7324896495932336,1.0,0.7016353607177734,0.6951537258989057,1,0.7718094797593528,0.6729319450502572,0.751175609645565,0.8697494268604116,0.8697494268604116,0,1.0155315399169922,1.0,0.6050802282113035,-0.15354425426835827,1,1.0,0,951.0,0.0057289558462798595,0.007671196013689041,0.05015943944454193,0.04248824343085289,0.010966538451611996,0.0026065371930599213,0.019525175914168358,0.015873031690716743,5.76894474029541,55.814598083496094
subject_01,window2,2,0,normal,0,Rest1,60.0,120.0,1.0,2505.765625,585.765625,0.0,0.0,0,0,0.021614583333333333,0,85,0,1.0,0.6904761904761905,1.0,0.6940104166666666,0.7577228767658202,0.9930073618888855,0.832238495349884,0.7561229807191245,1,0.5465788686280403,0.802527866806664,0.7666294089723334,0.062379738404760764,0.802527866806664,0,1.5473744869232178,1.0,0.6035073392202223,-0.15517458319346644,1,1.0,0,893.0,0.006027578841894865,0.007071075960993767,0.04232661426067352,0.035255540162324905,0.009443212300539017,0.002805843949317932,0.022267073392868042,0.01867319457232952,5.850667476654053,160.94888305664062
subject_01,window3,3,0,normal,0,Rest1,120.0,180.0,1.0,2505.765625,585.765625,0.0,0.0,0,0,0.022395833333333334,0,77,0,0.9736842105263158,0.7631578947368421,0.9736842105263158,0.7730263157894737,0.9085293717867534,1.0,0.47045665979385376,0.5737363210005211,1,0.7856825527700797,0.547473454383967,0.29908094385192285,-0.03409402413930607,0.7856825527700797,0,0.5603705644607544,0.5603705644607544,0.7165217550899506,0.34044598901224976,1,1.0,0,874.0,0.0041379984468221664,0.0058760796673595905,0.039294417947530746,0.03341833874583244,0.008328312076628208,0.0019747328478842974,0.015738919377326965,0.013314686715602875,5.718089580535889,47.0494270324707
subject_01,window4,4,1,stress,1,Task1,180.0,240.0,1.0,2505.765625,585.765625,0.0,0.0,0,0,0.022135416666666668,0,84,0,1.0,0.5301204819277109,1.0,0.7170557228915663,0.7217727471475588,0.784578412771225,2.5729470252990723,0.9171443460135488,1,0.8112111914318332,0.8173406521844615,0.8325550011133124,0.6704551115365309,0.8325550011133124,0,3.1777241230010986,1.0,0.528580016915352,-0.2643760654419909,1,1.0,0,900.0,0.008369417861104012,0.007353420834988356,0.04289931803941727,0.03554590046405792,0.008966759778559208,0.0036193514242768288,0.032989080995321274,0.026676082983613014,6.12858247756958,22.765243530273438
subject_01,window5,5,1,stress,1,Task1,240.0,300.0,1.0,2505.765625,585.765625,0.0,0.0,0,0,0.021614583333333333,0,77,0,0.9736842105263158,0.5657894736842105,0.9736842105263158,0.780016447368421,0.7644567392000998,0.8998068869113922,1.8529787063598633,0.8832725377800938,1,0.7786440462324323,0.8593166758085985,0.8113648297653783,0.29743139479125985,0.8593166758085985,0,2.288879871368408,1.0,0.5503896533389774,-0.2194604092616006,1,1.0,0,961.0,0.006542873568832874,0.006739593576639891,0.046344906091690063,0.039605312049388885,0.008639952167868614,0.0029310937970876694,0.025755740702152252,0.020877676084637642,6.062113285064697,46.18661880493164
subject_01,window6,6,1,stress,1,Task1,300.0,360.0,1.0,2505.765625,585.765625,0.0,0.0,0,0,0.021614583333333333,0,79,0,1.0,0.8205128205128205,1.0,0.7620192307692307,0.9450745649689549,1.0,0.9456955790519714,0.7561229807191245,1,0.8270029280595144,0.8716301440200569,0.8273520005168543,0.48482901894658254,0.8716301440200569,0,1.5505162477493286,1.0,0.7117274976958147,-0.06757751260391509,1,1.0,0,918.0,0.005990315228700638,0.006775894667953253,0.046201400458812714,0.039425503462553024,0.009455213323235512,0.0024576536379754543,0.019877947866916656,0.016847100108861923,5.800380706787109,81.71673583984375
subject_01,window7,7,1,stress,1,Task1,360.0,420.0,1.0,2505.765625,585.765625,0.0,0.0,0,0,0.021614583333333333,0,79,0,1.0,0.5897435897435898,1.0,0.7562099358974359,0.751336985691918,0.8478096723556519,1.4812297821044922,0.8738926524231371,1,0.7625370463547269,0.8537668136778576,0.8041815729324784,0.48427540721082685,0.8537668136778576,0,1.9827995300292969,1.0,0.5612985316050113,-0.2232902585650306,1,1.0,0,962.0,0.006639863830059767,0.006569223012775183,0.046219758689403534,0.03965053707361221,0.008119301870465279,0.0032717734575271606,0.02561267465353012,0.021298879757523537,6.099339485168457,204.9229278564453
subject_01,window8,8,1,stress,1,Task1,420.0,480.0,1.0,2505.765625,585.765625,0.0,0.0,0,0,0.021614583333333333,0,78,0,1.0,0.6883116883116883,1.0,0.7568993506493507,0.8356602930588557,0.950747162103653,0.9545824527740479,0.8650338718082334,1,0.6609619790944284,0.8006926822759806,0.8583267616441815,0.5904027754856048,0.8583267616441815,0,1.2362651824951172,1.0,0.626022763242332,-0.14690462971586626,1,1.0,0,968.0,0.006821906194090843,0.006862984970211983,0.043657150119543076,0.036794163286685944,0.00777679355815053,0.003982393071055412,0.030267462134361267,0.024884939193725586,6.292663097381592,28.182781219482422
subject_01,window9,9,1,stress,1,Task1,480.0,540.0,1.0,2505.765625,585.765625,0.0,0.0,0,0,0.02109375,0,83,0,1.0,0.6341463414634146,1.0,0.7214176829268293,0.8089060614609315,0.8216312527656555,0.7336149215698242,0.7159979155810318,1,0.6064120684596113,0.41681173322297527,0.5811752424382758,0.3629046338107249,0.6064120684596113,0,1.0258615016937256,1.0,0.5963303550236453,-0.20212176900432888,1,1.0,0,924.0,0.00745705422013998,0.006977632641792297,0.04339352622628212,0.03641589358448982,0.008558956906199455,0.003405604511499405,0.028413213789463043,0.02354935184121132,6.124711513519287,64.66278076171875
subject_01,window10,10,1,stress,1,Task1,540.0,600.0,1.0,2505.765625,585.765625,0.0,0.0,0,0,0.023697916666666666,0,80,0,1.0,0.6962025316455697,1.0,0.7541534810126582,0.7615713605862915,0.7768246531486511,1.209604263305664,0.7649817613340282,1,0.8159839766946262,0.7677495887039494,0.7155857439258351,0.7850630495783821,0.8159839766946262,0,1.7182961702346802,1.0,0.6069524208341154,-0.2065402370725935,1,1.0,0,948.0,0.007579759228974581,0.007171065080910921,0.04611942544579506,0.038948360830545425,0.008440835401415825,0.003974825609475374,0.0321488082408905,0.025947099551558495,6.1851277351379395,213.55364990234375
subject_01,window11,11,1,stress,1,Task1,600.0,660.0,1.0,2505.765625,585.765625,0.0,0.0,0,0,0.023697916666666666,0,88,0,1.0,0.5747126436781609,1.0,0.6733117816091954,0.734443595106238,0.7378715574741364,1.2980014085769653,0.8108389786347056,1,0.8973736508363392,0.8565507496414995,0.7903804662675962,0.6257517731543686,0.8973736508363392,0,1.7751187086105347,1.0,0.5502181360031358,-0.2595074187514581,1,1.0,0,940.0,0.008721557445824146,0.008576354943215847,0.05291251838207245,0.04433616250753403,0.010618625208735466,0.004020547494292259,0.03156813606619835,0.025549661368131638,6.110452651977539,62.92266082763672
subject_01,window12,12,1,stress,1,Task1,660.0,720.0,1.0,2505.765625,585.765625,0.0,0.0,0,0,0.023697916666666666,0,88,0,1.0,0.7241379310344828,1.0,0.681573275862069,0.7765790017642313,0.8580046892166138,2.0647852420806885,0.9228764981761334,1,0.7393683295366135,0.8855985985057173,0.797319097615215,0.7613110090556983,0.8855985985057173,0,2.4373087882995605,1.0,0.6226288729430626,-0.17411269794444384,1,1.0,0,985.0,0.008706748485565186,0.007930400781333447,0.04532632976770401,0.03739593178033829,0.009388449601829052,0.004325436428189278,0.029016420245170593,0.023016685619950294,6.247034072875977,55.4112663269043
subject_01,window13,13,1,stress,1,Task1,720.0,780.0,1.0,2505.765625,585.765625,0.0,0.0,0,0,0.02265625,0,82,0,1.0,0.6666666666666666,1.0,0.7208719135802469,0.7966998119033599,0.7677347958087921,1.9042617082595825,0.9098488796248045,1,0.7115968336815816,0.8762644682506562,0.7669986230962418,0.4912868567872036,0.8762644682506562,0,2.3751487731933594,1.0,0.6056766102376746,-0.20889134807196208,1,1.0,0,957.0,0.00781529862433672,0.007435378152877092,0.04665863886475563,0.039223261177539825,0.00853891670703888,0.00412982702255249,0.03282872214913368,0.026964938268065453,6.281864643096924,12.064030647277832
subject_01,window14,14,0,normal,0,Rest2,780.0,840.0,1.0,2505.765625,585.765625,0.0,0.0,0,0,0.021614583333333333,0,78,0,0.961038961038961,0.5974025974025974,0.961038961038961,0.7704951298701299,0.7713579664559151,0.7314993143081665,1.9853274822235107,0.815528921313184,1,0.8523264601408161,0.8600522922477682,0.7896462976089944,0.6865971835512829,0.8600522922477682,0,2.7495765686035156,1.0,0.5625762211056057,-0.2528571083804081,1,1.0,0,965.0,0.006377965211868286,0.006615117192268372,0.04503287747502327,0.0384177602827549,0.008557391352951527,0.002875605598092079,0.02496923878788948,0.020212916657328606,6.057832717895508,59.176570892333984
subject_01,window15,15,0,normal,0,Rest2,840.0,900.0,1.0,2505.765625,585.765625,0.0,0.0,0,0,0.02109375,0,78,0,1.0,0.6623376623376623,1.0,0.7702922077922078,0.7383959209077943,0.9720247387886047,1.0007511377334595,0.6717040125065138,1,0.7262455326261106,0.6876606277103146,0.6739507049105792,0.5826863965018516,0.7262455326261106,0,1.5660583972930908,1.0,0.5864538412074033,-0.1736935363746015,1,1.0,0,954.0,0.006060012616217136,0.007511181756854057,0.04855526611208916,0.04104408249258995,0.010317185893654823,0.0027425899170339108,0.020552238449454308,0.01724293828010559,5.878715991973877,56.3154411315918
subject_01,window16,16,1,stress,1,Task2,900.0,960.0,1.0,2505.765625,585.765625,0.0,0.0,0,0,0.02109375,0,75,0,0.9594594594594594,0.6351351351351351,0.9594594594594594,0.8002533783783784,0.8079981499575754,0.6429732441902161,1.5126912593841553,0.7764460656591975,1,0.6079269862730856,0.8477859415981716,0.8239919128021372,0.761016611858463,0.8477859415981716,0,2.024385929107666,1.0,0.5883453909332186,-0.25482471903061976,1,1.0,0,949.0,0.006545030511915684,0.007509665098041296,0.05035024881362915,0.042840585112571716,0.009866484440863132,0.0031805336475372314,0.023476166650652885,0.018553927540779114,5.972618103027344,79.47174072265625
subject_01,window17,17,1,stress,1,Task2,960.0,1020.0,1.0,2505.765625,585.765625,0.0,0.0,0,0,0.022395833333333334,0,80,0,0.9873417721518988,0.6962025316455697,0.9873417721518988,0.7505933544303798,0.7788616190783445,0.704741895198822,1.0845997333526611,0.8092756644085461,1,0.7278488354928123,0.6797924157960276,0.6360983381431619,0.40104470029296413,0.7278488354928123,0,1.5699492692947388,1.0,0.609607852812111,-0.22277000750665765,1,1.0,0,969.0,0.007360032759606838,0.007453234400600195,0.047977231442928314,0.04052399471402168,0.00943033304065466,0.003604033961892128,0.025232750922441483,0.020562898367643356,6.111737251281738,43.568145751953125
subject_01,window18,18,1,stress,1,Task2,1020.0,1080.0,1.0,2505.765625,585.765625,0.0,0.0,0,0,0.021614583333333333,0,85,0,1.0,0.6428571428571429,1.0,0.7055431547619048,0.8095355640111741,0.7795071005821228,1.8355052471160889,0.9359041167274622,1,0.6691225496139466,0.8428066236803231,0.7791983844024359,0.2257292719388231,0.8428066236803231,0,2.283214807510376,1.0,0.6000035263462095,-0.20988219099453298,1,1.0,0,957.0,0.007234822027385235,0.007222136482596397,0.047179967164993286,0.03995782881975174,0.008820150047540665,0.0034962547942996025,0.02517225407063961,0.020951027050614357,6.140453338623047,75.2754898071289
subject_01,window19,19,1,stress,1,Task2,1080.0,1140.0,1.0,2505.765625,585.765625,0.0,0.0,0,0,0.021614583333333333,0,88,0,0.9885057471264368,0.5402298850574713,0.9885057471264368,0.6725933908045977,0.7074899584872486,0.8044447898864746,2.2752432823181152,0.9140177175612298,1,0.8588587755055339,0.8806587040440862,0.8072379314147273,0.36492348092381055,0.8806587040440862,0,2.8897438049316406,1.0,0.5260400909944505,-0.2622461979640405,1,1.0,0,948.0,0.0070486972108483315,0.008230216801166534,0.04825388640165329,0.040023669600486755,0.010546204634010792,0.0038408199325203896,0.028849363327026367,0.023811310529708862,6.02586030960083,39.54194259643555
subject_01,window20,20,1,stress,1,Task2,1140.0,1200.0,1.0,2505.765625,585.765625,0.0,0.0,0,0,0.021875,0,88,0,1.0,0.4827586206896552,1.0,0.686242816091954,0.7151850706718744,0.8634626269340515,2.7206287384033203,0.9166232412714955,1,0.8021102478383643,0.8879199714556372,0.7909598311743182,0.5119131421518497,0.8879199714556372,0,3.3053674697875977,1.0,0.5076589694774244,-0.2605104893916219,1,1.0,0,978.0,0.009360497817397118,0.008459995500743389,0.048699844628572464,0.0402398481965065,0.010097210295498371,0.004386214539408684,0.034080907702445984,0.02724340930581093,6.232000827789307,77.94815063476562
subject_01,window21,21,0,normal,0,Rest3,1200.0,1260.0,1.0,2505.765625,585.765625,0.0,0.0,0,0,0.021875,0,79,0,0.9743589743589743,0.5128205128205128,0.9743589743589743,0.7540064102564102,0.7082738138350632,0.8706823587417603,0.9320985674858093,0.7316310578426264,1,0.7722748167024124,0.7988905286004212,0.7599807336290504,0.7714626960955251,0.7988905286004212,0,1.3396345376968384,1.0,0.512482144150519,-0.2565430081378455,1,1.0,0,927.0,0.005839986726641655,0.0073558916337788105,0.04787929728627205,0.040523406118154526,0.010356158018112183,0.0025086784735322,0.019932396709918976,0.016433484852313995,5.746905326843262,216.95721435546875
subject_01,window22,22,0,normal,0,Rest3,1260.0,1320.0,1.0,2505.765625,585.765625,0.0,0.0,0,0,0.02109375,0,75,0,0.972972972972973,0.6621621621621622,0.972972972972973,0.8070101351351351,0.7446251597817044,0.8858239054679871,0.902377188205719,0.7123501823866597,1,0.8689950985144709,0.626836112395765,0.7304180800743196,0.7716825740661494,0.8689950985144709,0,1.3674142360687256,1.0,0.5828470073939708,-0.1991444904443339,1,1.0,0,961.0,0.005497362464666367,0.006412634626030922,0.04391499608755112,0.037502363324165344,0.008933312259614468,0.002315763384103775,0.01831163465976715,0.015196641907095909,5.800163745880127,126.15879821777344
subject_01,window23,23,1,stress,1,Task3,1320.0,1380.0,1.0,2505.765625,585.765625,0.0,0.0,0,0,0.022916666666666665,0,82,0,1.0,0.5925925925925926,1.0,0.7264660493827161,0.70332206711497,0.8537518084049225,0.9230765104293823,0.7008858780614904,1,0.8548329336015144,0.8927930387146722,0.7443206694825854,0.794928743010475,0.8927930387146722,0,1.2211546897888184,1.0,0.5480336571715281,-0.2329537533422491,1,1.0,0,960.0,0.007550877518951893,0.007936865091323853,0.05019325762987137,0.042256392538547516,0.010352344252169132,0.0034342375583946705,0.027194883674383163,0.02227768301963806,6.015468597412109,124.50320434570312
subject_01,window24,24,1,stress,1,Task3,1380.0,1440.0,1.0,2505.765625,585.765625,0.0,0.0,0,0,0.021875,0,86,0,1.0,0.6,1.0,0.6865808823529411,0.6981808514348036,0.9794182181358337,1.7286524772644043,0.8457529963522668,1,0.8863513057549731,0.9102195235271733,0.8083827315797113,0.7417751754975804,0.9102195235271733,1,2.4021387100219727,1.0,0.549454255430441,-0.2006002326073406,1,1.0,0,945.0,0.006410939618945122,0.007627565413713455,0.05007471516728401,0.04244714975357056,0.010250790044665337,0.0031043756753206253,0.024263491854071617,0.019596852362155914,5.914999008178711,85.92155456542969
subject_01,window25,25,1,stress,1,Task3,1440.0,1500.0,1.0,2505.765625,585.765625,0.0,0.0,0,0,0.022135416666666668,0,79,0,0.9871794871794872,0.6410256410256411,0.9871794871794872,0.7564102564102564,0.7606654400466288,0.7813630700111389,2.4736549854278564,0.890568004168838,1,0.7857763534319017,0.8899973187643836,0.8637918991957837,0.6794543881119876,0.8899973187643836,0,3.030449390411377,1.0,0.5820457858601426,-0.22474928274196837,1,1.0,0,961.0,0.008389582857489586,0.00841618049889803,0.048446934670209885,0.04003075137734413,0.010824089869856834,0.0036252252757549286,0.027440384030342102,0.023123497143387794,6.105254173278809,14.093063354492188
subject_01,window26,26,0,normal,0,Rest4,1500.0,1560.0,1.0,2505.765625,585.765625,0.0,0.0,0,0,0.0234375,0,89,0,1.0,0.6022727272727273,1.0,0.6750710227272727,0.7822502652146555,0.8810112774372101,1.7995651960372925,0.8332464825429912,1,0.8638431775068652,0.883337544525558,0.8319671909532143,0.7611369126406626,0.883337544525558,0,2.450174331665039,1.0,0.5755841704734875,-0.20350279615521538,1,1.0,0,962.0,0.007711546495556831,0.007671576924622059,0.047973427921533585,0.0403018519282341,0.009178121574223042,0.004105719737708569,0.028791945427656174,0.0238052811473608,6.215299606323242,35.362525939941406
subject_01,window27,27,0,normal,0,Rest4,1560.0,1620.0,1.0,2505.765625,585.765625,0.0,0.0,0,0,0.021875,0,77,0,1.0,0.7368421052631579,1.0,0.7715871710526315,0.7644203340375755,0.9594777226448059,0.8121606707572937,0.6357477853048463,1,0.8331304168472184,0.7700650124088131,0.6358194300920446,0.6721191543729396,0.8331304168472184,0,1.2159188985824585,1.0,0.6240629423165357,-0.14797285425045725,1,1.0,0,945.0,0.004593182820826769,0.006370578892529011,0.045092277228832245,0.03872169926762581,0.009001361206173897,0.0022803358733654022,0.016088347882032394,0.013493700884282589,5.787797927856445,112.92123413085938
subject_01,window28,28,1,stress,1,Task4,1620.0,1680.0,1.0,2505.765625,585.765625,0.0,0.0,0,0,0.021354166666666667,0,74,0,1.0,0.726027397260274,1.0,0.806292808219178,0.8909216853259933,1.0,0.6090405583381653,0.6352266805627931,1,0.30399030872827976,0.689703469999351,0.5674022988029295,-0.4817229223006839,0.689703469999351,0,1.154618740081787,1.0,0.6576874645019076,-0.10946135949041946,1,1.0,0,890.0,0.004672334995120764,0.006119541358202696,0.04136134684085846,0.035241805016994476,0.008662436157464981,0.0021416647359728813,0.017318181693553925,0.014166124165058136,5.579524517059326,339.55450439453125
subject_01,window29,29,1,stress,1,Task4,1680.0,1740.0,1.0,2505.765625,585.765625,0.0,0.0,0,0,0.020833333333333332,0,78,0,1.0,0.7532467532467533,1.0,0.7731331168831169,0.8302290159301613,0.8019082546234131,0.723487138748169,0.6810838978634706,1,0.10993199909298612,0.7642806290054777,0.7159742558872867,-0.03676521224355291,0.7642806290054777,0,0.9980948567390442,0.9980948567390442,0.6505579204038452,-0.1640865131266247,1,1.0,0,953.0,0.006766517646610737,0.007579904980957508,0.04860230162739754,0.041022397577762604,0.009706730023026466,0.003564390353858471,0.024605832993984222,0.020525338128209114,5.994879722595215,73.9415054321289
subject_01,window30,30,1,stress,1,Task4,1740.0,1800.0,1.0,2505.765625,585.765625,0.0,0.0,0,0,0.021875,0,77,0,1.0,0.7105263157894737,1.0,0.7670641447368421,0.790145973404473,0.923448383808136,1.2337472438812256,0.7978113600833767,1,0.6284069501956032,0.7607460809858944,0.7623324726924482,-0.07138534612425487,0.7623324726924482,0,1.7358037233352661,1.0,0.6212543183371314,-0.15844351596000572,1,1.0,0,906.0,0.005402873270213604,0.006405257619917393,0.04241471365094185,0.03600945696234703,0.008647524751722813,0.0025393394753336906,0.021187327802181244,0.01760202832520008,5.895827770233154,36.35287094116211
subject_01,window31,31,1,stress,1,Task4,1800.0,1860.0,1.0,2505.765625,585.765625,0.0,0.0,0,0,0.021614583333333333,0,72,0,0.971830985915493,0.6619718309859155,0.971830985915493,0.8369278169014085,0.8302576081583173,0.9990578889846802,0.9653701186180115,0.7571651902032308,1,0.7375954664941156,0.6945190400927302,0.6734398793984473,0.7043663598758462,0.7375954664941156,0,1.4425995349884033,1.0,0.60823221202496,-0.1497133792353773,1,1.0,0,933.0,0.004135425202548504,0.005431267432868481,0.038920849561691284,0.03348958492279053,0.007614465430378914,0.002059157006442547,0.014531636610627174,0.01168817188590765,5.777432918548584,49.72883987426758
subject_01,window32,32,1,stress,1,Task4,1860.0,1920.0,1.0,2505.765625,585.765625,0.0,0.0,0,0,0.022395833333333334,0,78,0,0.948051948051948,0.6363636363636364,0.948051948051948,0.7755681818181818,0.7723163161732127,0.9265808761119843,1.3886117935180664,0.8441896821261073,1,0.8437257335107909,0.7668017386257119,0.7966539016021521,0.834155044827541,0.8437257335107909,0,2.0253353118896484,1.0,0.575850739007808,-0.19475622140922022,1,1.0,0,914.0,0.005000338889658451,0.005629292689263821,0.040584828704595566,0.03495553508400917,0.007789312396198511,0.001953561557456851,0.014843206852674484,0.012166731059551239,5.872771263122559,28.304317474365234
subject_01,window33,33,1,stress,1,Task4,1920.0,1980.0,1.0,2505.765625,585.765625,0.0,0.0,0,0,0.021875,0,79,0,0.9743589743589743,0.6538461538461539,0.9743589743589743,0.7638221153846154,0.7838898627572144,0.9096581637859344,1.4798113107681274,0.8144867118290776,1,0.8499817340161827,0.8720646504123539,0.8862739100770974,0.9109534183331142,0.9109534183331142,1,1.9888383150100708,1.0,0.5915772152374208,-0.18558735233857182,1,1.0,0,967.0,0.006403277162462473,0.007021032739430666,0.0472736731171608,0.04025264084339142,0.009409748017787933,0.0029080137610435486,0.02180163748562336,0.018278876319527626,5.970526695251465,52.344661712646484
subject_01,window34,34,1,stress,1,Task4,1980.0,2040.0,1.0,2505.765625,585.765625,0.0,0.0,0,0,0.021354166666666667,0,78,0,0.987012987012987,0.6753246753246753,0.987012987012987,0.768060064935065,0.7690393661522451,0.816775381565094,1.4027087688446045,0.829077644606566,1,0.3913127691482376,0.7512106113532261,0.4163855259085359,-0.011522719204001814,0.7512106113532261,0,2.1909306049346924,1.0,0.5982442773781412,-0.20354631307066517,1,1.0,0,960.0,0.0068332054652273655,0.007440843153744936,0.053374409675598145,0.045933566987514496,0.009781692177057266,0.0032471930608153343,0.024564675986766815,0.02030312269926071,5.9912519454956055,54.73760223388672
subject_01,window35,35,1,stress,1,Task4,2040.0,2100.0,1.0,2505.765625,585.765625,0.0,0.0,0,0,0.0203125,0,83,0,1.0,0.7926829268292683,1.0,0.7273246951219512,0.9269578361127715,1.0,0.8680959343910217,0.7946847316310578,1,0.7032065389160599,0.9120585720310477,0.8699227229717806,0.21291412587998754,0.9120585720310477,1,1.0795087814331055,1.0,0.6951605215655389,-0.08045566292302664,1,1.0,0,934.0,0.0070189847610890865,0.007256508804857731,0.04713859781622887,0.03988208621740341,0.008866853080689907,0.00360989011824131,0.029188811779022217,0.024093758314847946,6.114828109741211,129.73731994628906
subject_01,window36,36,1,stress,1,Task4,2100.0,2160.0,1.0,2505.765625,585.765625,0.0,0.0,0,0,0.02265625,0,76,0,0.9866666666666667,0.8533333333333334,0.9866666666666667,0.788125,0.940448204819454,1.0,0.8963576555252075,0.7290255341323606,1,0.6764922925881801,0.7177254212370087,0.6358229614328614,0.3132012368575071,0.7177254212370087,0,1.1789964437484741,1.0,0.720801128112503,-0.061554615461803186,1,1.0,0,950.0,0.005189202725887299,0.006514283362776041,0.04836003854870796,0.04184575751423836,0.008948844857513905,0.002473446074873209,0.0218101404607296,0.018732950091362,5.835383415222168,65.99689483642578
subject_01,window37,37,0,normal,0,Rest5,2205.765625,2265.765625,1.0,2505.765625,585.765625,0.0,0.0,0,0,0.021354166666666667,0,73,0,0.9861111111111112,0.6666666666666666,0.9861111111111112,0.8196614583333334,0.8451136585981484,1.0,0.42673707008361816,0.5409067222511725,1,0.4937240932003945,0.47517544769602543,0.6053620133350364,0.3082838323150912,0.6053620133350364,0,0.5674242973327637,0.5674242973327637,0.6606805567350571,0.2910763395389957,1,1.0,0,942.0,0.00439686793833971,0.005855649709701538,0.04278235509991646,0.03692670539021492,0.008455824106931686,0.001953680068254471,0.015825841575860977,0.012864585034549236,5.66832160949707,68.74093627929688
subject_01,window38,38,0,normal,0,Rest5,2265.765625,2325.765625,1.0,2505.765625,585.765625,0.0,0.0,0,0,0.021354166666666667,0,77,0,0.9868421052631579,0.618421052631579,0.9868421052631579,0.7732319078947368,0.7452984395215623,0.7850298285484314,0.8643122911453247,0.706618030224075,1,0.6061481919321403,0.5077860275793424,0.479588495670935,0.6224460382766361,0.6224460382766361,0,1.360560417175293,1.0,0.5683263739617318,-0.2345231961403964,1,1.0,0,978.0,0.0059840078465640545,0.0068647367879748344,0.047108087688684464,0.040243349969387054,0.009138531051576138,0.0027902103029191494,0.020675357431173325,0.017028067260980606,6.020296096801758,20.56532859802246
subject_01,window39,39,1,stress,1,Task5,2325.765625,2385.765625,1.0,2505.765625,585.765625,0.0,0.0,0,0,0.021614583333333333,0,93,0,1.0,0.5652173913043478,1.0,0.6436820652173914,0.7038997103608224,0.9561451375484467,0.7181636095046997,0.7576862949452841,1,0.536962929832095,0.6615144340039824,0.6015083838547559,-0.23607142140226994,0.6615144340039824,0,1.08644437789917,1.0,0.5372568696299859,-0.2154235706313783,1,1.0,0,959.0,0.006313534453511238,0.007425895892083645,0.051333896815776825,0.043907999992370605,0.00946909561753273,0.003415491431951523,0.02550198696553707,0.020779412239789963,6.03492546081543,96.97769927978516
subject_01,window40,40,0,normal,0,Rest6,2385.765625,2445.765625,1.0,2505.765625,585.765625,0.0,0.0,0,0,0.020833333333333332,0,79,0,1.0,0.6025641025641025,1.0,0.7624198717948718,0.844729582561071,0.6844543516635895,0.2855541408061981,0.5023449713392392,1,0.23501565122666132,0.5935480882502798,0.7944889199867988,-0.4638524952398118,0.7944889199867988,0,0.307523250579834,0.307523250579834,0.6636921907359788,0.455541963745562,1,1.0,0,889.0,0.007157810032367706,0.007786266505718231,0.049859169870615005,0.042072903364896774,0.009833907708525658,0.0037529561668634415,0.027979884296655655,0.022545795887708664,6.001631736755371,38.4384765625
subject_01,window41,41,0,normal,0,Rest6,2445.765625,2505.765625,1.0,2505.765625,585.765625,0.0,0.0,0,0,0.021354166666666667,0,76,0,1.0,0.72,1.0,0.7908333333333334,0.827901697586576,0.9527195692062378,0.5625895857810974,0.6956748306409588,1,0.1698527692996569,0.5173301441347214,0.5070669332158159,-0.20597460506175344,0.5173301441347214,0,0.5337971448898315,0.5337971448898315,0.6829907947869895,0.3273581718083719,1,1.0,0,957.0,0.006823919713497162,0.006650829222053289,0.041363731026649475,0.03471289947628975,0.00789064820855856,0.003490881994366646,0.028180083259940147,0.02344002015888691,6.192399501800537,41.16056823730469
subject_02,window1,1,0,normal,0,Rest1,0.0,60.0,1.0,2355.8125,435.8125,0.0,0.0,0,0,0.021614583333333333,0,74,0,0.9863013698630136,0.684931506849315,0.9863013698630136,0.7947345890410958,0.7914614802961051,0.7599256634712219,1480729.5,0.6644085461177697,1,0.662669852313106,0.7659235369507453,0.6069655219060249,0.5304952373919662,0.7659235369507453,0,32424246.0,1.0,0.6086713208011603,-0.20941348803077098,1,1.0,0,900.0,0.005852603819221258,0.007219790015369654,0.045324988663196564,0.03810519725084305,0.010040940716862679,0.002512921579182148,0.019673116505146027,0.01623884215950966,5.789857387542725,70.06034088134766
subject_02,window2,2,0,normal,0,Rest1,60.0,120.0,1.0,2355.8125,435.8125,0.0,0.0,0,0,0.02109375,0,75,0,1.0,0.581081081081081,1.0,0.7905405405405406,0.83357357395652,0.7692070007324219,1.51583731174469,0.7060969254820219,1,0.8806843235463752,0.8793694187632775,0.8528756704793597,0.8187936464857601,0.8806843235463752,0,2.339174509048462,1.0,0.5825045046193885,-0.22498053200344015,1,1.0,0,904.0,0.005172200500965118,0.007024542894214392,0.042613860219717026,0.035589318722486496,0.010178941302001476,0.002196868881583214,0.01645490899682045,0.013044197112321854,5.6657538414001465,69.2630615234375
subject_02,window3,3,0,normal,0,Rest1,120.0,180.0,1.0,2355.8125,435.8125,0.0,0.0,0,0,0.022135416666666668,0,80,0,0.9873417721518988,0.6582278481012658,0.9873417721518988,0.7484177215189873,0.7623052996700262,1.0,0.5964950919151306,0.6112558624283481,1,0.755428975527063,0.8246802374329123,0.8243340501775261,0.5292877550227375,0.8246802374329123,0,1.1481071710586548,1.0,0.589451083571894,-0.16448696622173398,1,1.0,0,909.0,0.007058914750814438,0.007960360497236252,0.04850393161177635,0.0405435711145401,0.010292461141943932,0.0034449249505996704,0.025421788915991783,0.021081458777189255,5.975655555725098,47.162296295166016
subject_02,window4,4,1,stress,1,Task1,180.0,240.0,1.0,2355.8125,435.8125,0.0,0.0,0,0,0.022916666666666665,0,82,0,1.0,0.5925925925925926,1.0,0.7276234567901234,0.7496173163159805,0.8633610010147095,1.1739290952682495,0.7378843147472642,1,0.7080406726422324,0.9134581486471582,0.8012378722599035,-0.02957178128150958,0.9134581486471582,1,1.8483494520187378,1.0,0.5619222319318312,-0.2189776428895498,1,1.0,0,948.0,0.0058694761246442795,0.007148425094783306,0.048401840031147,0.04125341400504112,0.009560639038681984,0.0029652672819793224,0.021370520815253258,0.017530523240566254,5.924583911895752,65.634033203125
subject_02,window5,5,1,stress,1,Task1,240.0,300.0,1.0,2355.8125,435.8125,0.0,0.0,0,0,0.022395833333333334,0,90,0,1.0,0.550561797752809,1.0,0.6678370786516854,0.795458159883781,0.8523773550987244,1.0631542205810547,0.7920792079207921,1,0.5879324653470462,0.6189200022128672,0.6485851097853473,0.02919377439474308,0.6485851097853473,0,1.4410827159881592,1.0,0.558862167066258,-0.22287258192853088,1,1.0,0,986.0,0.007745122537016869,0.007696130312979221,0.045666880905628204,0.03797075152397156,0.00908232294023037,0.004057124722748995,0.029455477371811867,0.023908250033855438,6.252272129058838,28.567825317382812
subject_02,window6,6,1,stress,1,Task1,300.0,360.0,1.0,2355.8125,435.8125,0.0,0.0,0,0,0.022135416666666668,0,89,0,0.9886363636363636,0.5454545454545454,0.9886363636363636,0.6782670454545454,0.7298306329543857,0.8322678208351135,2.01284122467041,0.8822303282959875,1,0.8955632032572088,0.8916909440434887,0.8647211220392321,0.7847152182595669,0.8955632032572088,0,2.484231948852539,1.0,0.5348582807954066,-0.2481117501889889,1,1.0,0,947.0,0.00809992291033268,0.007672890089452267,0.04577593132853508,0.03810304403305054,0.009172105230391026,0.00402146577835083,0.029941635206341743,0.024123039096593857,6.191330432891846,61.2725715637207
subject_02,window7,7,1,stress,1,Task1,360.0,420.0,1.0,2355.8125,435.8125,0.0,0.0,0,0,0.022916666666666665,0,77,0,0.9868421052631579,0.7105263157894737,0.9868421052631579,0.7748766447368421,0.7705353313777258,0.9033135771751404,1.9636427164077759,0.9129755080771235,1,0.9148504258866867,0.9285539368989277,0.8937622408358032,0.6075637410036699,0.9285539368989277,1,2.461604595184326,1.0,0.6127395467817388,-0.1710114570723098,1,1.0,0,944.0,0.007201523054391146,0.0071114045567810535,0.0441504530608654,0.037039048969745636,0.008457452990114689,0.0039478084072470665,0.028543684631586075,0.023105930536985397,6.18517541885376,43.86248779296875
subject_02,window8,8,1,stress,1,Task1,420.0,480.0,1.0,2355.8125,435.8125,0.0,0.0,0,0,0.021875,0,94,0,1.0,0.5376344086021505,1.0,0.6374327956989247,0.7088901149820073,0.9055547714233398,2.85052752494812,0.9338196977592496,1,0.8973788347798781,0.9370197051822629,0.9241611684809125,0.5965193855205261,0.9370197051822629,1,3.5238568782806396,1.0,0.5277207979354624,-0.23509845581801803,1,1.0,0,976.0,0.007229223847389221,0.007195162121206522,0.044000715017318726,0.03680555522441864,0.008986495435237885,0.0034719370305538177,0.025713926181197166,0.021327141672372818,6.1223955154418945,42.204734802246094
subject_02,window9,9,1,stress,1,Task1,480.0,540.0,1.0,2355.8125,435.8125,0.0,0.0,0,0,0.022135416666666668,0,90,0,1.0,0.4943820224719101,1.0,0.663623595505618,0.7260053490248657,0.8110476732254028,1.9791607856750488,0.924960917144346,1,0.8971486134836346,0.9112671747789753,0.9243260553234677,0.5385015582473102,0.9243260553234677,1,2.4975857734680176,1.0,0.5155544136962238,-0.2674221376958599,1,1.0,0,995.0,0.007618231698870659,0.007021917030215263,0.045063335448503494,0.03804141655564308,0.00829203799366951,0.0036697760224342346,0.031076129525899887,0.0250775795429945,6.239140033721924,96.61524963378906
subject_02,window10,10,1,stress,1,Task1,540.0,600.0,1.0,2355.8125,435.8125,0.0,0.0,0,0,0.022395833333333334,0,89,0,1.0,0.6022727272727273,1.0,0.6711647727272727,0.7040406952488436,0.9030759334564209,2.2309341430664062,0.9458051068264721,1,0.8760565439167073,0.9351880248752553,0.9074890963069038,0.5729048495064168,0.9351880248752553,1,2.8023009300231934,1.0,0.552121299483744,-0.21753902464186559,1,1.0,0,931.0,0.007626601494848728,0.007484710309654474,0.04437035694718361,0.03688564524054527,0.00842667743563652,0.00451238639652729,0.03194340690970421,0.025690492242574692,6.2628960609436035,32.158775329589844
subject_02,window11,11,1,stress,1,Task1,600.0,660.0,1.0,2355.8125,435.8125,0.0,0.0,0,0,0.023697916666666666,0,76,0,0.9866666666666667,0.52,0.9866666666666667,0.78375,0.7906302834429948,0.8694766759872437,2.3535327911376953,0.9562272016675352,1,0.8731929736943367,0.8921590005794617,0.8865264950914735,0.7637782298718526,0.8921590005794617,0,2.9735782146453857,1.0,0.5425224183662318,-0.23163992680910706,1,1.0,0,978.0,0.007005946710705757,0.007062890101224184,0.045693762600421906,0.03863087296485901,0.008393984287977219,0.0036534108221530914,0.027533026412129402,0.023015230894088745,6.23342227935791,32.00960922241211
subject_02,window12,12,1,stress,1,Task1,660.0,720.0,1.0,2355.8125,435.8125,0.0,0.0,0,0,0.0234375,0,79,0,0.9871794871794872,0.6538461538461539,0.9871794871794872,0.7463942307692307,0.8190970198907106,0.7920600771903992,2.7865705490112305,0.9062011464304325,1,0.8215936110514882,0.8533888131968138,0.9248378611071364,0.11068937033862639,0.9248378611071364,1,3.2956767082214355,1.0,0.6047034649415722,-0.20362098213997903,1,1.0,0,929.0,0.006555553991347551,0.00734277768060565,0.04538118466734886,0.038038406521081924,0.009229036048054695,0.0034614913165569305,0.025243403390049934,0.020611654967069626,6.068856239318848,42.80580139160156
subject_02,window13,13,1,stress,1,Task1,720.0,780.0,1.0,2355.8125,435.8125,0.0,0.0,0,0,0.021875,0,87,0,1.0,0.5581395348837209,1.0,0.6876816860465116,0.6706399088806669,0.7753152251243591,3.8681352138519287,0.9739447628973423,1,0.8836223303588624,0.95355207879624,0.9318347716856403,0.673823061163836,0.95355207879624,1,4.7278265953063965,1.0,0.5244477866176885,-0.27106935603362725,1,1.0,0,993.0,0.00818211305886507,0.007285252679139376,0.043506987392902374,0.036221735179424286,0.008159283548593521,0.004342688247561455,0.032212454825639725,0.026062142103910446,6.3488593101501465,15.872438430786133
subject_02,window14,14,0,normal,0,Rest2,780.0,840.0,1.0,2355.8125,435.8125,0.0,0.0,0,0,0.023177083333333334,0,81,0,1.0,0.475,1.0,0.73359375,0.7545284393896888,0.8866851925849915,2.469683885574341,0.8311620635747785,1,0.8897928592439567,0.9144261168596611,0.9063739474754074,0.5625458038305371,0.9144261168596611,1,3.310131549835205,1.0,0.5163585318169067,-0.24719659200632993,1,1.0,0,977.0,0.006732724606990814,0.007079655304551125,0.043828655034303665,0.03674899786710739,0.009336787275969982,0.00299883633852005,0.023790666833519936,0.018921442329883575,6.0237507820129395,31.28560447692871
subject_02,window15,15,0,normal,0,Rest2,840.0,900.0,1.0,2355.8125,435.8125,0.0,0.0,0,0,0.021875,0,84,0,1.0,0.6987951807228916,1.0,0.7123493975903614,0.799445127844576,1.0,1.0156956911087036,0.6107347576862949,1,0.6424055286895711,0.712233599683548,0.7372642868891999,0.7141379281625794,0.7372642868891999,0,1.7459739446640015,1.0,0.6193516106425295,-0.1405001638219885,1,1.0,0,932.0,0.004826750606298447,0.006931556388735771,0.04539671912789345,0.03846516087651253,0.009989755228161812,0.002241875045001507,0.017406418919563293,0.014224333688616753,5.676373481750488,76.69596862792969
subject_02,window16,16,1,stress,1,Task2,900.0,960.0,1.0,2355.8125,435.8125,0.0,0.0,0,0,0.023177083333333334,0,77,0,0.9868421052631579,0.631578947368421,0.9868421052631579,0.76953125,0.7740572691135178,0.8612686395645142,2.324054479598999,0.693069306930693,1,0.8616302758927876,0.9134833167719295,0.8674248412474955,0.7837202520089707,0.9134833167719295,1,3.191633462905884,1.0,0.5822171807340554,-0.20432641756733405,1,1.0,0,893.0,0.006665294989943504,0.0069696963764727116,0.04492565989494324,0.03795596584677696,0.009060530923306942,0.003033546730875969,0.024535715579986572,0.01980544626712799,5.98286771774292,43.12154769897461
subject_02,window17,17,1,stress,1,Task2,960.0,1020.0,1.0,2355.8125,435.8125,0.0,0.0,0,0,0.021875,0,85,0,1.0,0.5119047619047619,1.0,0.7062872023809523,0.7437397060791153,0.7861053943634033,2.7777535915374756,0.955706096925482,1,0.842621796695501,0.9193189093854697,0.8999915585432995,0.6311471268025746,0.9193189093854697,1,3.4345510005950928,1.0,0.5278838165856393,-0.2639672963179418,1,1.0,0,1001.0,0.0067178551107645035,0.006539090070873499,0.041215188801288605,0.03467610105872154,0.00801373552531004,0.003224502317607403,0.026326626539230347,0.0216368418186903,6.202393531799316,43.690406799316406
subject_02,window18,18,1,stress,1,Task2,1020.0,1080.0,1.0,2355.8125,435.8125,0.0,0.0,0,0,0.021354166666666667,0,80,0,0.9873417721518988,0.620253164556962,0.9873417721518988,0.7513844936708861,0.7535037124256254,0.8187120258808136,2.7864859104156494,0.9322563835330901,1,0.8860413094118124,0.9271426687564208,0.8867425203437157,0.7084424309691078,0.9271426687564208,1,3.5133044719696045,1.0,0.5716207339808522,-0.22340176162592185,1,1.0,0,964.0,0.006410330533981323,0.006701719481498003,0.04365608096122742,0.0369543619453907,0.008018805645406246,0.003630684223026037,0.026416609063744545,0.02172749489545822,6.192450523376465,36.635902404785156
subject_02,window19,19,1,stress,1,Task2,1080.0,1140.0,1.0,2355.8125,435.8125,0.0,0.0,0,0,0.022916666666666665,0,86,0,1.0,0.5529411764705883,1.0,0.6930147058823529,0.7428522885067567,0.7987581193447113,2.078038454055786,0.9072433559145389,1,0.8537081899938828,0.9185110369729124,0.8903806235022486,0.4890166433005445,0.9185110369729124,1,2.568909168243408,1.0,0.5440321571402623,-0.24871504509595654,1,1.0,0,924.0,0.008729358203709126,0.008098380640149117,0.048372432589530945,0.04027405008673668,0.00966375507414341,0.004146017599850893,0.03116082027554512,0.02541388012468815,6.1726765632629395,54.62508010864258
subject_02,window20,20,1,stress,1,Task2,1140.0,1200.0,1.0,2355.8125,435.8125,0.0,0.0,0,0,0.021875,0,92,0,0.989010989010989,0.5604395604395604,0.989010989010989,0.6459478021978022,0.7026131933536948,0.7634470462799072,2.7457237243652344,0.9072433559145389,1,0.8516014501163953,0.92742681628931,0.8763538059567887,0.4319621402979351,0.92742681628931,1,3.60476016998291,1.0,0.5327619799841304,-0.26755087415753365,1,1.0,0,945.0,0.007387476973235607,0.0077087245881557465,0.047748416662216187,0.04003969207406044,0.009574449621140957,0.003783583641052246,0.029858319088816643,0.02438235469162464,6.099377632141113,69.90103912353516
subject_02,window21,21,0,normal,0,Rest3,1200.0,1260.0,1.0,2355.8125,435.8125,0.0,0.0,0,0,0.021875,0,80,0,1.0,0.5949367088607594,1.0,0.7409018987341772,0.7363793963643586,0.904850959777832,2.3429036140441895,0.8551328817092235,1,0.8670226012489567,0.913671028494131,0.8676071358475111,0.7273922873083835,0.913671028494131,1,2.943895101547241,1.0,0.5588885024536113,-0.21121139830622448,1,1.0,0,940.0,0.007271573878824711,0.007887506857514381,0.04752267897129059,0.039635173976421356,0.010674310848116875,0.003091562306508422,0.023452896624803543,0.019800104200839996,5.933337211608887,77.76214599609375
subject_02,window22,22,0,normal,0,Rest3,1260.0,1320.0,1.0,2355.8125,435.8125,0.0,0.0,0,0,0.021875,0,89,0,0.9886363636363636,0.5454545454545454,0.9886363636363636,0.6732954545454546,0.6740622965379213,0.8321964144706726,1.9220494031906128,0.8629494528400209,1,0.8946591760110989,0.7665106260873846,0.8624391709261006,0.9047034143517573,0.9047034143517573,1,2.743976593017578,1.0,0.5181277798704673,-0.26207168588421514,1,1.0,0,968.0,0.0069313449785113335,0.007674769498407841,0.050666891038417816,0.04299212247133255,0.01012092549353838,0.0032503907568752766,0.023799464106559753,0.01940697431564331,6.0190958976745605,44.78728485107422
subject_02,window23,23,1,stress,1,Task3,1320.0,1380.0,1.0,2355.8125,435.8125,0.0,0.0,0,0,0.021354166666666667,0,69,0,0.8970588235294118,0.5735294117647058,0.8970588235294118,0.8653492647058824,0.8023373531520854,0.9790956676006317,0.984602153301239,0.6977592496091715,1,0.830362789783736,0.8443717038640616,0.896756669169544,0.7403249364539932,0.896756669169544,0,1.514641523361206,1.0,0.5495247353573903,-0.20317115657652662,1,1.0,0,930.0,0.003886051010340452,0.006533220410346985,0.038386620581150055,0.03185340017080307,0.010201570577919483,0.0014572818763554096,0.010862937197089195,0.008952074684202671,5.465355396270752,40.680328369140625
subject_02,window24,24,1,stress,1,Task3,1380.0,1440.0,1.0,2355.8125,435.8125,0.0,0.0,0,0,0.022916666666666665,0,85,0,0.9880952380952381,0.5119047619047619,0.9880952380952381,0.6984747023809523,0.7317063253031114,0.8391271233558655,4.05261754989624,0.9702970297029703,1,0.8794155136118177,0.9275514665529163,0.9164997609171482,0.7305526244815955,0.9275514665529163,1,4.837510585784912,1.0,0.5218928499718859,-0.2561011616447796,1,1.0,0,967.0,0.008093971759080887,0.006991214584559202,0.04170510172843933,0.03471388667821884,0.008077041245996952,0.0039023738354444504,0.03030136413872242,0.02501066029071808,6.280053615570068,33.0786018371582
subject_02,window25,25,1,stress,1,Task3,1440.0,1500.0,1.0,2355.8125,435.8125,0.0,0.0,0,0,0.021614583333333333,0,87,0,1.0,0.5813953488372093,1.0,0.6807776162790697,0.7209126132469067,0.8202729225158691,4.66790771484375,0.9025534132360604,1,0.8595730017293823,0.9431746047610597,0.9349819910660081,0.7170276833691412,0.9431746047610597,1,5.39280891418457,1.0,0.5488319235089557,-0.24028501140814318,1,1.0,0,936.0,0.010310309007763863,0.009119078516960144,0.05032706633210182,0.04120798781514168,0.010900472290813923,0.004633145872503519,0.03560420125722885,0.028844475746154785,6.175257205963135,48.0333366394043
subject_02,window26,26,0,normal,0,Rest4,1500.0,1560.0,1.0,2355.8125,435.8125,0.0,0.0,0,0,0.025,0,82,0,0.9876543209876543,0.5555555555555556,0.9876543209876543,0.7282021604938271,0.6891048186633368,0.9959659576416016,2.109811305999756,0.7936425221469515,1,0.8692850373645097,0.8406763674033255,0.8461515865500072,0.8126932042461413,0.8692850373645097,0,3.4952151775360107,1.0,0.5264845320187542,-0.21453477505956786,1,1.0,0,921.0,0.007280748337507248,0.007417232729494572,0.048002321273088455,0.04058508947491646,0.009493755176663399,0.003171280026435852,0.023401163518428802,0.01880570314824581,6.070173740386963,18.333913803100586
subject_02,window27,27,0,normal,0,Rest4,1560.0,1620.0,1.0,2355.8125,435.8125,0.0,0.0,0,0,0.02109375,0,87,0,1.0,0.5697674418604651,1.0,0.6833212209302325,0.7531933455772308,0.8188017904758453,2.3185343742370605,0.877019280875456,1,0.6791820968093223,0.7978075009075609,0.7733329170033837,0.6930328145131072,0.7978075009075609,0,3.373163938522339,1.0,0.5538649804173553,-0.23607098342859145,1,1.0,0,983.0,0.007526504807174206,0.007570750545710325,0.04984719678759575,0.042276445776224136,0.009659336879849434,0.003468543291091919,0.025362323969602585,0.020362507551908493,6.083390712738037,101.2778549194336
subject_02,window28,28,1,stress,1,Task4,1620.0,1680.0,1.0,2355.8125,435.8125,0.0,0.0,0,0,0.021875,0,75,0,1.0,0.7567567567567568,1.0,0.7977195945945946,0.8641002599009628,1.0,0.5857627391815186,0.6456487754038561,1,0.5646897036211619,0.5342989896202576,0.43537686321335334,-0.38039257531106585,0.5646897036211619,0,0.8150248527526855,0.8150248527526855,0.680430295397723,0.07802723924958221,1,1.0,0,902.0,0.006255206186324358,0.006633169949054718,0.04676983878016472,0.04013666883111,0.008853666484355927,0.002436552196741104,0.0210019089281559,0.017648523673415184,5.965295791625977,19.243886947631836
subject_02,window29,29,1,stress,1,Task4,1680.0,1740.0,1.0,2355.8125,435.8125,0.0,0.0,0,0,0.022135416666666668,0,85,0,1.0,0.7142857142857143,1.0,0.7100074404761905,0.7627933485380775,0.9515025615692139,0.46557632088661194,0.6352266805627931,1,0.554567996751626,0.4786776139152777,0.42613890809200533,-0.42337861802408006,0.554567996751626,0,0.6161506175994873,0.6161506175994873,0.6529372285157602,0.22670907421304975,1,1.0,0,961.0,0.007391355931758881,0.007460332475602627,0.04797683283686638,0.040516503155231476,0.009151654317975044,0.003742378205060959,0.029848167672753334,0.02463993988931179,6.144103527069092,80.68763732910156
subject_02,window30,30,1,stress,1,Task4,1740.0,1800.0,1.0,2355.8125,435.8125,0.0,0.0,0,0,0.02109375,0,83,0,1.0,0.6829268292682927,1.0,0.7233231707317073,0.9255330648822935,1.0,0.4878866374492645,0.6081292339760291,1,0.6137701601327125,0.593046713358049,0.6524761847102326,0.0777199935910505,0.6524761847102326,0,0.724805474281311,0.724805474281311,0.678350103743874,0.16145584071975017,1,1.0,0,872.0,0.005722672678530216,0.007751708384603262,0.050326183438301086,0.04257447272539139,0.011165320873260498,0.0024423780851066113,0.021905403584241867,0.01866152137517929,5.622861385345459,150.67222595214844
subject_02,window31,31,1,stress,1,Task4,1800.0,1860.0,1.0,2355.8125,435.8125,0.0,0.0,0,0,0.021354166666666667,0,77,0,1.0,0.8026315789473685,1.0,0.7719983552631579,0.9390379009299535,1.0,0.5502472519874573,0.5773840541948931,1,0.7050425376931222,0.7297350435331467,0.7941012043302315,0.7378585417752279,0.7941012043302315,0,1.0340027809143066,1.0,0.7027640018579334,-0.07445105108330108,1,1.0,0,913.0,0.005842272192239761,0.007010544650256634,0.04785488173365593,0.04084433987736702,0.009334755130112171,0.0029188161715865135,0.023556625470519066,0.019617047160863876,5.892911911010742,138.1590118408203
subject_02,window32,32,1,stress,1,Task4,1860.0,1920.0,1.0,2355.8125,435.8125,0.0,0.0,0,0,0.0234375,0,79,0,1.0,0.7307692307692307,1.0,0.7574118589743589,0.9253625248265307,1.0,0.667851448059082,0.6065659197498697,1,0.7180577009370065,0.5508925205739856,0.6619661552678067,0.8392025329204325,0.8392025329204325,0,1.2485063076019287,1.0,0.6699164497556515,-0.09942859956259809,1,1.0,0,926.0,0.006789539474993944,0.008663957938551903,0.05627519264817238,0.047611236572265625,0.012329774908721447,0.002909710630774498,0.021504119038581848,0.018078666180372238,5.747320652008057,101.00640106201172
subject_02,window33,33,1,stress,1,Task4,1920.0,1980.0,1.0,2355.8125,435.8125,0.0,0.0,0,0,0.024479166666666666,0,75,0,1.0,0.8513513513513513,1.0,0.7892736486486487,0.9742131256998396,1.0,0.30837199091911316,0.4773319437206879,1,0.5267693476473811,0.4965586808725747,0.4020004460718593,-0.02595641194484125,0.5267693476473811,0,0.2025439292192459,0.2025439292192459,0.8125500853285679,0.7464147576111194,1,1.0,0,887.0,0.006346740294247866,0.006128543987870216,0.034840285778045654,0.02871173992753029,0.007271145470440388,0.0034302696585655212,0.0268205925822258,0.022558528929948807,6.13646936416626,29.892683029174805
subject_02,window34,34,1,stress,1,Task4,1980.0,2040.0,1.0,2355.8125,435.8125,0.0,0.0,0,0,0.022135416666666668,0,81,0,1.0,0.65,1.0,0.7361328125,0.8333849295129137,1.0,0.6966062784194946,0.6138613861386139,1,0.649568859678707,0.7688423517321921,0.6949441515944902,0.3161781405155003,0.7688423517321921,0,1.1647825241088867,1.0,0.6100154788538742,-0.14665376762177162,1,1.0,0,954.0,0.006901029497385025,0.007842959836125374,0.05109865218400955,0.04325569048523903,0.010956354439258575,0.0028083641082048416,0.023322857916355133,0.01907447725534439,5.793453216552734,140.2415771484375
subject_02,window35,35,0,normal,0,Rest5,2055.8125,2115.8125,1.0,2355.8125,435.8125,0.0,0.0,0,0,0.023177083333333334,0,86,0,0.9882352941176471,0.6470588235294118,0.9882352941176471,0.7009191176470588,0.7116788882414696,0.8571901917457581,1.9457406997680664,0.8556539864512767,1,0.8933623692903829,0.8525825613441183,0.8515509743163098,0.8883955104528257,0.8933623692903829,0,2.5148420333862305,1.0,0.569974254707735,-0.21601802412084015,1,1.0,0,946.0,0.00879914965480566,0.008140037767589092,0.05143345892429352,0.04329342022538185,0.010671881958842278,0.003078772686421871,0.024980369955301285,0.020396733656525612,6.057777404785156,19.38762092590332
subject_02,window36,36,0,normal,0,Rest5,2115.8125,2175.8125,1.0,2355.8125,435.8125,0.0,0.0,0,0,0.021614583333333333,0,89,0,1.0,0.625,1.0,0.6690340909090909,0.7894277053016093,0.893097460269928,1.1823909282684326,0.7733194372068786,1,0.9331681256158121,0.7964843708082087,0.9241181446459452,0.9385411305494419,0.9385411305494419,1,1.9321926832199097,1.0,0.5868283115904828,-0.19186870860711558,1,1.0,0,1028.0,0.007745364680886269,0.007830961607396603,0.050451360642910004,0.042620398104190826,0.009698785841464996,0.003661785274744034,0.030183864757418633,0.024787455797195435,6.24140739440918,10.703916549682617
subject_02,window37,37,1,stress,1,Task5,2175.8125,2235.8125,1.0,2355.8125,435.8125,0.0,0.0,0,0,0.021614583333333333,0,91,0,0.9888888888888889,0.6222222222222222,0.9888888888888889,0.653125,0.7449381637477668,1.0,0.7170242071151733,0.7227722772277227,1,0.7629424992137015,0.5763471380446203,0.7530033197746807,-0.125458671959351,0.7629424992137015,0,1.1981067657470703,1.0,0.5701481157909968,-0.17932101461861383,1,1.0,0,940.0,0.005085425451397896,0.006704660598188639,0.04273892939090729,0.03603426739573479,0.009617961011826992,0.0021026497706770897,0.01584605872631073,0.013160506263375282,5.776700496673584,47.685970306396484
subject_02,window38,38,0,normal,0,Rest6,2235.8125,2295.8125,1.0,2355.8125,435.8125,0.0,0.0,0,0,0.023177083333333334,0,85,0,0.9880952380952381,0.6904761904761905,0.9880952380952381,0.7096354166666666,0.7699120903987624,0.8904419541358948,1.0670373439788818,0.8514851485148515,1,0.6105233787973339,0.6159695454609524,0.6479195534591808,0.4578696705200042,0.6479195534591808,0,1.445749282836914,1.0,0.6047831509291525,-0.18014958410443094,1,1.0,0,953.0,0.007239137776196003,0.0064671821892261505,0.04136335849761963,0.03489617630839348,0.007541321218013763,0.0034697726368904114,0.026806799694895744,0.021672707051038742,6.240207672119141,40.18883514404297
subject_02,window39,39,0,normal,0,Rest6,2295.8125,2355.8125,1.0,2355.8125,435.8125,0.0,0.0,0,0,0.02265625,0,84,0,1.0,0.6265060240963856,1.0,0.7142319277108434,0.7059542488199603,1.0,2.043488025665283,0.8718082334549244,1,0.8812813487098378,0.8706395839839889,0.852656009016289,0.9210943400968612,0.9210943400968612,1,2.7303719520568848,1.0,0.5623886842845424,-0.18555963056609426,1,1.0,0,932.0,0.007194870617240667,0.007545112632215023,0.04824524372816086,0.04070013016462326,0.01001819409430027,0.0028641982935369015,0.026927998289465904,0.022488407790660858,5.9986419677734375,23.788965225219727
subject_03,window1,1,0,normal,0,Rest1,0.0,60.0,1.0,2076.25,156.25,0.0,0.0,0,0,0.02109375,0,81,0,1.0,0.8,1.0,0.7298828125,0.9266976203212789,1.0,1480795.125,0.5570609692548202,1,0.5988273514256826,0.583528789456447,0.3580142702879854,-0.48555863408643984,0.5988273514256826,0,32425682.0,1.0,0.6980092860963837,-0.07832559491968027,1,1.0,0,941.0,0.004195446148514748,0.005952377803623676,0.04071451723575592,0.03476214036345482,0.008819826878607273,0.0017157355323433876,0.012393598444759846,0.01060372032225132,5.637619972229004,113.57303619384766
subject_03,window2,2,0,normal,0,Rest1,60.0,120.0,1.0,2076.25,156.25,0.0,0.0,0,0,0.021354166666666667,0,81,0,1.0,0.7875,1.0,0.741796875,0.9857712704841523,1.0,0.39537686109542847,0.6492965085982283,1,0.38030756476881783,0.4142736755501497,-0.6582406834330358,-0.5783899441393623,0.4142736755501497,0,0.5225138068199158,0.5225138068199158,0.7584800004632541,0.4101790108011223,1,1.0,0,923.0,0.0038538710214197636,0.005875801667571068,0.041937895119190216,0.036062091588974,0.008441522717475891,0.002144760452210903,0.016774864867329597,0.013921597972512245,5.445624828338623,181.1417236328125
subject_03,window3,3,0,normal,0,Rest1,120.0,180.0,1.0,2076.25,156.25,0.0,0.0,0,0,0.020833333333333332,0,83,0,1.0,0.9390243902439024,1.0,0.7259908536585366,0.9797598811157336,1.0,0.49372273683547974,0.6789994788952579,1,0.33155993033098685,0.31373843911829863,0.12397656099586109,-0.35396405389857366,0.33155993033098685,0,0.7796002626419067,0.7796002626419067,0.7915776941680903,0.19704702471019742,1,1.0,0,873.0,0.004776276648044586,0.0067434455268085,0.04356209933757782,0.03681865707039833,0.009594514966011047,0.00251631997525692,0.019201727584004402,0.016244839876890182,5.433259010314941,167.14785766601562
subject_03,window4,4,1,stress,1,Task1,180.0,240.0,1.0,2076.25,156.25,0.0,0.0,0,0,0.021875,0,95,0,1.0,0.6595744680851063,1.0,0.6326462765957447,0.6333455393091779,0.9187435805797577,3.392380714416504,0.8170922355393434,1,0.6037779294069333,0.8364159746536308,0.7144875451970303,0.6436900234235168,0.8364159746536308,0,3.8825697898864746,1.0,0.5538334490267959,-0.2141053796022342,1,1.0,0,951.0,0.008456488139927387,0.008175388909876347,0.048238951712846756,0.040063563734292984,0.010573658160865307,0.003377692773938179,0.028781337663531303,0.023781605064868927,6.087094783782959,20.369384765625
subject_03,window5,5,1,stress,1,Task1,240.0,300.0,1.0,2076.25,156.25,0.0,0.0,0,0,0.02421875,0,100,0,1.0,0.6262626262626263,1.0,0.6022727272727273,0.6449264197186491,0.8640075922012329,3.4982259273529053,0.9838457529963522,1,0.8092584624818082,0.8909459633058241,0.8353306183462179,0.5907324305739772,0.8909459633058241,0,4.1264872550964355,1.0,0.5439829764206453,-0.23488770914124157,1,1.0,0,967.0,0.009178759530186653,0.008427057415246964,0.04937252402305603,0.04094546660780907,0.009294658899307251,0.005027225241065025,0.0367586649954319,0.02971094660460949,6.343711853027344,11.923199653625488
subject_03,window6,6,1,stress,1,Task1,300.0,360.0,1.0,2076.25,156.25,0.0,0.0,0,0,0.02265625,0,89,0,1.0,0.5568181818181818,1.0,0.6759588068181818,0.6915824059309763,0.8086287081241608,4.963980674743652,0.9718603439291298,1,0.6516700280340237,0.8881080341003643,0.7059628932149866,0.2946534861351633,0.8881080341003643,0,5.818758964538574,1.0,0.5302019945065656,-0.2579017669407613,1,1.0,0,945.0,0.007224038243293762,0.00790164154022932,0.04858964681625366,0.04068800434470177,0.010092640295624733,0.0035325493663549423,0.02793213538825512,0.02392110414803028,6.034045696258545,74.77371215820312
subject_03,window7,7,1,stress,1,Task1,360.0,420.0,1.0,2076.25,156.25,0.0,0.0,0,0,0.021354166666666667,0,91,0,1.0,0.6,1.0,0.6545138888888888,0.7028643245899918,0.8190426230430603,5.300533294677734,0.9405940594059405,1,0.613219990323604,0.9319756260330407,0.6660247596467124,0.04163022457244328,0.9319756260330407,1,6.596364974975586,1.0,0.5508592973769976,-0.239523263091737,1,1.0,0,939.0,0.007256089709699154,0.007371046580374241,0.045196518301963806,0.03782547265291214,0.00929109938442707,0.0033873263746500015,0.025215568020939827,0.020066363736987114,6.092249870300293,29.510658264160156
subject_03,window8,8,1,stress,1,Task1,420.0,480.0,1.0,2076.25,156.25,0.0,0.0,0,0,0.022135416666666668,0,90,0,1.0,0.5955056179775281,1.0,0.6674859550561798,0.723977949570423,0.9856057167053223,2.993587017059326,0.8775403856175091,1,0.8369778064837191,0.8249065011469302,0.8035172880130665,0.6304056595558314,0.8369778064837191,0,3.494664430618286,1.0,0.5553956320621382,-0.19395239803780528,1,1.0,0,942.0,0.007627005688846111,0.008337143808603287,0.04967842623591423,0.041341282427310944,0.010977852158248425,0.0034333905205130577,0.026421792805194855,0.020795967429876328,5.9745659828186035,131.39364624023438
subject_03,window9,9,1,stress,1,Task1,480.0,540.0,1.0,2076.25,156.25,0.0,0.0,0,0,0.02265625,0,89,0,1.0,0.5568181818181818,1.0,0.6773792613636364,0.6897417229840638,0.8960290551185608,4.492465019226074,0.9833246482542991,1,0.7179597030165699,0.8826486174922872,0.802435980456132,0.6725985035604841,0.8826486174922872,0,5.474030494689941,1.0,0.5296497896224919,-0.23651185092888927,1,1.0,0,980.0,0.006947378162294626,0.00661858357489109,0.04021400585770607,0.03359542042016983,0.0076078628189861774,0.0036503802984952927,0.02750980854034424,0.021271806210279465,6.293385982513428,21.391891479492188
subject_03,window10,10,1,stress,1,Task1,540.0,600.0,1.0,2076.25,156.25,0.0,0.0,0,0,0.022395833333333334,0,92,0,1.0,0.5934065934065934,1.0,0.6480082417582418,0.6874120555552146,0.8426571190357208,4.617847919464111,0.9812402292860865,1,0.7953052761721692,0.8687869544149345,0.7580092904008322,0.624174447062301,0.8687869544149345,0,5.884333610534668,1.0,0.5435862540292017,-0.2394607283302881,1,1.0,0,981.0,0.007691176608204842,0.007770238444209099,0.04627647250890732,0.03850623220205307,0.009742424823343754,0.0037094056606292725,0.027521517127752304,0.022266117855906487,6.143926620483398,29.642566680908203
subject_03,window11,11,1,stress,1,Task1,600.0,660.0,1.0,2076.25,156.25,0.0,0.0,0,0,0.021354166666666667,0,93,0,1.0,0.6413043478260869,1.0,0.6351902173913043,0.6718549882949231,0.857599139213562,3.203519344329834,0.9072433559145389,1,0.8409560020034514,0.8511973213896664,0.7807604539658821,0.6192295808988892,0.8511973213896664,0,3.620518207550049,1.0,0.5580782356189117,-0.22524516377505266,1,1.0,0,1008.0,0.007272657472640276,0.008386347442865372,0.051060646772384644,0.04267429932951927,0.01117873378098011,0.0035860128700733185,0.027753084897994995,0.022617101669311523,5.999117851257324,50.18085861206055
subject_03,window12,12,1,stress,1,Task1,660.0,720.0,1.0,2076.25,156.25,0.0,0.0,0,0,0.022916666666666665,0,94,0,1.0,0.6021505376344086,1.0,0.6328965053763441,0.6472691456902003,0.784438967704773,4.32725191116333,0.9869723814486712,1,0.72870328339875,0.8885808965285866,0.7834193703114766,0.6324541463575992,0.8885808965285866,0,5.1318817138671875,1.0,0.5350409587608236,-0.2614278103609341,1,1.0,0,975.0,0.007493249140679836,0.007863582111895084,0.05049289017915726,0.04262930899858475,0.009591663256287575,0.004137247800827026,0.03070252761244774,0.02435404248535633,6.152840614318848,109.61146545410156
subject_03,window13,13,1,stress,1,Task1,720.0,780.0,1.0,2076.25,156.25,0.0,0.0,0,0,0.020572916666666666,0,96,0,1.0,0.6105263157894737,1.0,0.6197368421052631,0.7232279707545863,0.9320284426212311,3.825529098510742,0.9650859822824388,1,0.7873130187952646,0.891817821017897,0.7880571670654247,0.6991265984668393,0.891817821017897,0,4.577862739562988,1.0,0.5611789175421654,-0.20302800191920345,1,1.0,0,942.0,0.008045196533203125,0.008544729091227055,0.05259352922439575,0.04404880106449127,0.011146259494125843,0.003969237208366394,0.0254504531621933,0.020497441291809082,5.978224754333496,55.428104400634766
subject_03,window14,14,0,normal,0,Rest2,780.0,840.0,1.0,2076.25,156.25,0.0,0.0,0,0,0.022916666666666665,0,93,0,1.0,0.6521739130434783,1.0,0.6462296195652174,0.632802031854102,0.8949882388114929,3.6895322799682617,0.907764460656592,1,0.8760084432439372,0.8388686662853213,0.8214728956335589,0.9332309742548217,0.9332309742548217,1,4.289627552032471,1.0,0.5507101747736219,-0.22240025842055777,1,1.0,0,966.0,0.00936654768884182,0.009594973176717758,0.06186382845044136,0.0522688552737236,0.012399347499012947,0.00416092574596405,0.03221742808818817,0.0256020687520504,6.065977573394775,33.30971145629883
subject_03,window15,15,0,normal,0,Rest2,840.0,900.0,1.0,2076.25,156.25,0.0,0.0,0,0,0.020833333333333332,0,84,0,1.0,0.7590361445783133,1.0,0.708960843373494,0.9433873452516727,1.0,1.9427624940872192,0.7326732673267327,1,0.6090105673992657,0.5454317278835832,0.6817642141210168,0.7328305550290332,0.7328305550290332,0,2.295271635055542,1.0,0.686630661406827,-0.08644232031358778,1,1.0,0,894.0,0.006535893306136131,0.009252013638615608,0.05344124883413315,0.04418923333287239,0.013736623339354992,0.002693232148885727,0.020182326436042786,0.016280237585306168,5.550227165222168,79.1369857788086
subject_03,window16,16,1,stress,1,Task2,900.0,960.0,1.0,2076.25,156.25,0.0,0.0,0,0,0.020572916666666666,0,86,0,1.0,0.5882352941176471,1.0,0.6994485294117647,0.7292110613215641,0.9857584834098816,3.3137869834899902,0.9192287649817613,1,0.8699971987874214,0.831039179338478,0.7849031155793459,0.5530657294983999,0.8699971987874214,0,3.7779078483581543,1.0,0.5540574360435281,-0.19478702558184446,1,1.0,0,903.0,0.005665820557624102,0.006761564407497644,0.04036952927708626,0.03360796719789505,0.009233393706381321,0.0027082404121756554,0.021586887538433075,0.017356259748339653,5.74384069442749,173.37313842773438
subject_03,window17,17,1,stress,1,Task2,960.0,1020.0,1.0,2076.25,156.25,0.0,0.0,0,0,0.02265625,0,88,0,1.0,0.6436781609195402,1.0,0.6848060344827587,0.6960298511539,0.7636328339576721,5.358476161956787,0.9859301719645649,1,0.7706620128454057,0.9176313680297609,0.8087198205325772,0.5826158867049408,0.9176313680297609,1,6.431645393371582,1.0,0.5662802197139861,-0.24198088044624488,1,1.0,0,959.0,0.008387308567762375,0.0076980311423540115,0.048140328377485275,0.04044229909777641,0.009080120362341404,0.0039117103442549706,0.029425134882330894,0.023498492315411568,6.239006996154785,20.22154998779297
subject_03,window18,18,1,stress,1,Task2,1020.0,1080.0,1.0,2076.25,156.25,0.0,0.0,0,0,0.021354166666666667,0,93,0,1.0,0.5760869565217391,1.0,0.6463994565217391,0.6644529923555419,0.9395993947982788,2.8399064540863037,0.9286086503387181,1,0.752407467763452,0.8972259821626278,0.7340330735249366,0.10544018594245595,0.8972259821626278,0,3.900049924850464,1.0,0.5297706803153582,-0.22616081625502304,1,1.0,0,962.0,0.006044869776815176,0.0071779522113502026,0.048538267612457275,0.041360314935445786,0.00932568870484829,0.003309577237814665,0.02409042790532112,0.01998373679816723,5.986395359039307,143.92137145996094
subject_03,window19,19,1,stress,1,Task2,1080.0,1140.0,1.0,2076.25,156.25,0.0,0.0,0,0,0.021875,0,90,0,0.9887640449438202,0.550561797752809,0.9887640449438202,0.6660814606741573,0.6836708337805546,0.8893147706985474,4.2995686531066895,0.9458051068264721,1,0.725995778889489,0.9388908711530671,0.7979277914677005,0.20037593681912266,0.9388908711530671,1,5.020009994506836,1.0,0.523078778224054,-0.24383225056561775,1,1.0,0,957.0,0.007647177204489708,0.007254775147885084,0.045306507498025894,0.03805173188447952,0.008880725130438805,0.003620302304625511,0.025930512696504593,0.02027835324406624,6.173055171966553,22.770971298217773
subject_03,window20,20,1,stress,1,Task2,1140.0,1200.0,1.0,2076.25,156.25,0.0,0.0,0,0,0.02109375,0,91,0,1.0,0.6333333333333333,1.0,0.653125,0.7002465314883469,0.928982138633728,4.3177080154418945,0.9854090672225118,1,0.7881569781033879,0.949710981435289,0.8471284764048029,0.13114973360060833,0.949710981435289,1,5.132598876953125,1.0,0.5634072927798374,-0.20269283246948122,1,1.0,0,999.0,0.006617827340960503,0.0065193213522434235,0.04077161103487015,0.034252289682626724,0.00800405815243721,0.003116859123110771,0.02473624050617218,0.020185943692922592,6.194215774536133,68.55481719970703
subject_03,window21,21,0,normal,0,Rest3,1200.0,1260.0,1.0,2076.25,156.25,0.0,0.0,0,0,0.020572916666666666,0,93,0,0.9891304347826086,0.6956521739130435,0.9891304347826086,0.6396059782608695,0.7397905552383958,0.9592856764793396,4.924872398376465,0.9275664408546118,1,0.7969108872988461,0.9324687006517367,0.8245567504140225,0.8062822754506932,0.9324687006517367,1,6.086589813232422,1.0,0.5980241230932578,-0.16870920294013136,1,1.0,0,970.0,0.005643583834171295,0.00634354492649436,0.04291076585650444,0.036567218601703644,0.00855163298547268,0.002484802156686783,0.021482383832335472,0.01768025942146778,5.906461715698242,179.7024383544922
subject_03,window22,22,0,normal,0,Rest3,1260.0,1320.0,1.0,2076.25,156.25,0.0,0.0,0,0,0.021354166666666667,0,91,0,1.0,0.7444444444444445,1.0,0.6571180555555556,0.9094716290363641,1.0,2.0500285625457764,0.795205836373111,1,0.8050921001534289,0.7245449079095773,0.7206956692737198,0.9059804102673699,0.9059804102673699,1,3.1397008895874023,1.0,0.6706192664886871,-0.0992987594075756,1,1.0,0,887.0,0.006618749815970659,0.00822004396468401,0.052198540419340134,0.0439784936606884,0.011415230110287666,0.003069295547902584,0.02236851491034031,0.01916276291012764,5.784424781799316,64.39835357666016
subject_03,window23,23,1,stress,1,Task3,1320.0,1380.0,1.0,2076.25,156.25,0.0,0.0,0,0,0.02265625,0,95,0,1.0,0.8617021276595744,1.0,0.6349734042553191,0.9622799202418509,1.0,2.1328999996185303,0.7811360083376758,1,0.5104326284497598,0.816498042481848,0.7420511561828528,0.5820530592143233,0.816498042481848,0,2.7061004638671875,1.0,0.733364827136385,-0.050919381641664874,1,1.0,0,924.0,0.006514042615890503,0.00897006131708622,0.053967513144016266,0.0449974499642849,0.012755579315125942,0.0028218026272952557,0.02043665573000908,0.0172770656645298,5.809134483337402,32.58742141723633
subject_03,window24,24,1,stress,1,Task3,1380.0,1440.0,1.0,2076.25,156.25,0.0,0.0,0,0,0.020833333333333332,0,97,0,1.0,0.625,1.0,0.6165364583333334,0.6872681782393775,0.8659698367118835,5.534093856811523,0.9859301719645649,1,0.8367010129764697,0.9218763193018126,0.9174532030003779,0.8142282819682085,0.9218763193018126,1,6.559727191925049,1.0,0.5561804534718132,-0.2241904962621848,1,1.0,0,991.0,0.007671700790524483,0.007874789647758007,0.04919928312301636,0.041324496269226074,0.009556734003126621,0.00394662469625473,0.03082701563835144,0.02508627250790596,6.176913261413574,84.99976348876953
subject_03,window25,25,1,stress,1,Task3,1440.0,1500.0,1.0,2076.25,156.25,0.0,0.0,0,0,0.021875,0,92,0,1.0,0.7912087912087912,1.0,0.6512706043956044,0.87341056821847,1.0,3.257876396179199,0.8749348619072433,1,0.8351937437634855,0.863225744102687,0.8979714977809888,0.7983513983546034,0.8979714977809888,0,4.048214435577393,1.0,0.6785066869490574,-0.09428472058274506,1,1.0,0,974.0,0.006183888763189316,0.007517821155488491,0.045951664447784424,0.03843384236097336,0.010111591778695583,0.003025587648153305,0.023335054516792297,0.019017839804291725,5.92817497253418,136.98187255859375
subject_03,window26,26,0,normal,0,Rest4,1500.0,1560.0,1.0,2076.25,156.25,0.0,0.0,0,0,0.021614583333333333,0,85,0,1.0,0.7738095238095238,1.0,0.7096354166666666,0.9580407707629897,1.0,1.9355189800262451,0.8342886920270974,1,0.7895708006457502,0.7816678527669078,0.7253611137204756,0.8334648911208773,0.8334648911208773,0,2.8878369331359863,1.0,0.6969360407527064,-0.07834695016639537,1,1.0,0,914.0,0.007645840290933847,0.007610539440065622,0.0483778640627861,0.040767326951026917,0.00951304379850626,0.003500952385365963,0.03027110919356346,0.025586901232600212,6.051695823669434,128.94015502929688
subject_03,window27,27,0,normal,0,Rest4,1560.0,1620.0,1.0,2076.25,156.25,0.0,0.0,0,0,0.02265625,0,82,0,1.0,0.9382716049382716,1.0,0.732445987654321,0.9801299450272032,1.0,0.8621710538864136,0.6821261073475768,1,0.6102206599916877,0.5274205329088961,0.5578843453441388,0.7141558097676199,0.7141558097676199,0,1.6695820093154907,1.0,0.7693476254834696,-0.02348603226171786,1,1.0,0,916.0,0.007167530246078968,0.007500250358134508,0.0463365763425827,0.03883632645010948,0.009551591239869595,0.0033854348585009575,0.025738663971424103,0.02127739042043686,6.038291931152344,43.59713363647461
subject_03,window28,28,1,stress,1,Task4,1620.0,1680.0,1.0,2076.25,156.25,0.0,0.0,0,0,0.0234375,0,90,0,1.0,0.7752808988764045,1.0,0.6613412921348315,0.8682407482541223,1.0,1.5521550178527832,0.8212610734757686,1,0.4659049359460968,0.6709390395000239,0.6412634190429134,0.8421500314219322,0.8421500314219322,0,2.642528533935547,1.0,0.6705845840267984,-0.10035554327354812,1,1.0,0,962.0,0.008683286607265472,0.008018563501536846,0.04999488964676857,0.04197632521390915,0.009346915408968925,0.004498178139328957,0.036553800106048584,0.03044964000582695,6.2614288330078125,26.663347244262695
subject_03,window29,29,1,stress,1,Task4,1680.0,1740.0,1.0,2076.25,156.25,0.0,0.0,0,0,0.022135416666666668,0,93,0,1.0,0.9021739130434783,1.0,0.6404551630434783,0.9645675902285192,1.0,0.8739367127418518,0.771235018238666,1,0.35552739181926585,0.36070882684811767,0.5849843713496108,-0.1875873409037448,0.5849843713496108,0,1.276408314704895,1.0,0.7502398422859472,-0.03820592852982663,1,1.0,0,921.0,0.005624410696327686,0.006237903609871864,0.04102940484881401,0.034791503101587296,0.007886760868132114,0.002924066036939621,0.022435350343585014,0.018666617572307587,6.0726213455200195,20.178152084350586
subject_03,window30,30,0,normal,0,Rest5,1776.25,1836.25,1.0,2076.25,156.25,0.0,0.0,0,0,0.021614583333333333,0,85,0,1.0,0.7738095238095238,1.0,0.6994047619047619,0.8971376939448091,1.0,1.8880447149276733,0.7608129233976029,1,0.7508371899814065,0.6787424161674576,0.8207169961815299,0.9493053430675947,0.9493053430675947,1,3.0541632175445557,1.0,0.6786651177072524,-0.09357271937094058,1,1.0,0,957.0,0.006810104474425316,0.00694098649546504,0.044021379202604294,0.037080392241477966,0.008742124773561954,0.0031352341175079346,0.02807324007153511,0.023582221940159798,6.095503807067871,73.16860961914062
subject_03,window31,31,0,normal,0,Rest5,1836.25,1896.25,1.0,2076.25,156.25,0.0,0.0,0,0,0.020833333333333332,0,81,0,1.0,0.8125,1.0,0.733984375,0.9130956859012508,1.0,1.6626276969909668,0.8238665971860344,1,0.8723771075363571,0.8016204946107768,0.845272629340799,0.842209765894723,0.8723771075363571,0,2.644619941711426,1.0,0.6989287057703751,-0.07797607852468724,1,1.0,0,928.0,0.00729638384655118,0.007916445843875408,0.048849597573280334,0.04093315079808235,0.010118276812136173,0.003625069744884968,0.02750232070684433,0.023170730099081993,6.034398078918457,46.280189514160156
subject_03,window32,32,1,stress,1,Task5,1896.25,1956.25,1.0,2076.25,156.25,0.0,0.0,0,0,0.021614583333333333,0,90,0,1.0,0.8089887640449438,1.0,0.6667837078651685,0.9711142743529233,1.0,1.3846150636672974,0.795205836373111,1,0.7828252677638543,0.6583281927779215,0.720506448017749,0.7839789642032297,0.7839789642032297,0,2.341348886489868,1.0,0.7149297879238546,-0.06452480219828605,1,1.0,0,905.0,0.007311591878533363,0.007891799323260784,0.04864722490310669,0.04075542464852333,0.010311872698366642,0.0032763825729489326,0.023038340732455254,0.019163476303219795,5.97745418548584,27.385231018066406
subject_03,window33,33,0,normal,0,Rest6,1956.25,2016.25,1.0,2076.25,156.25,0.0,0.0,0,0,0.022395833333333334,0,83,0,1.0,0.7926829268292683,1.0,0.7219893292682927,0.98351743874736,1.0,1.1614320278167725,0.5961438249088067,1,0.6799151164673073,0.6111231590883327,0.727963041929906,0.8780945432479046,0.8780945432479046,0,1.6353296041488647,1.0,0.7121284023559155,-0.06631576226437952,1,1.0,0,865.0,0.005910774692893028,0.007405335549265146,0.04397265613079071,0.0365673191845417,0.009958417154848576,0.0029695890843868256,0.02157272771000862,0.018459873273968697,5.871807098388672,29.469884872436523
subject_03,window34,34,0,normal,0,Rest6,2016.25,2076.25,1.0,2076.25,156.25,0.0,0.0,0,0,0.021354166666666667,0,84,0,1.0,0.7951807228915663,1.0,0.7174322289156626,0.9706930124974291,1.0,1.0253149271011353,0.8150078165711307,1,0.531282927826804,0.39624059473932705,0.48907335426303444,0.7438465434032636,0.7438465434032636,0,1.6100800037384033,1.0,0.7092801929058553,-0.06877253000817285,1,1.0,0,897.0,0.005570323206484318,0.007174191530793905,0.04445822164416313,0.03728402778506279,0.009760131128132343,0.002868644893169403,0.021958891302347183,0.01814417913556099,5.779714107513428,121.26165008544922
subject_04,window1,1,0,normal,0,Rest1,0.0,60.0,1.0,2108.734375,188.734375,0.0,0.0,0,0,0.022135416666666668,0,64,0,0.9841269841269841,0.8571428571428571,0.9841269841269841,0.9223710317460317,0.9494332642764574,0.3520330786705017,1480811.875,0.5586242834809797,1,0.2104123129310749,-0.14911622672850516,0.29034294012343004,-0.5880790249501658,0.29034294012343004,0,32425974.0,1.0,0.7245125189654769,-0.22066516029500627,1,1.0,0,914.0,0.005044952034950256,0.008411546237766743,0.053463250398635864,0.045051705092191696,0.012740432284772396,0.0021605645306408405,0.01781444251537323,0.014591008424758911,5.566938877105713,34.00210189819336
subject_04,window2,2,0,normal,0,Rest1,60.0,120.0,1.0,2108.734375,188.734375,0.0,0.0,0,0,0.020833333333333332,0,60,0,1.0,0.9661016949152542,1.0,0.9954978813559322,0.9950429139570018,0.2773188054561615,0.311874121427536,0.416362688900469,1,-0.06082494341382551,0.16729437780807144,-0.27441096378904706,-0.46637824135207584,0.16729437780807144,0,0.34789901971817017,0.34789901971817017,0.8501636501813852,0.460021918609697,1,1.0,0,824.0,0.004028737545013428,0.005956678651273251,0.0426458939909935,0.036689214408397675,0.008614095859229565,0.002080607693642378,0.01653699204325676,0.01353549025952816,5.3993377685546875,473.5632019042969
subject_04,window3,3,0,normal,0,Rest1,120.0,180.0,1.0,2108.734375,188.734375,0.0,0.0,0,0,0.02578125,0,61,0,1.0,0.9833333333333333,1.0,0.9942708333333333,0.9896269752408062,0.284115731716156,0.1944100707769394,0.3757165190203231,1,0.4709517978227577,-0.2780393564957064,0.5028913207630892,0.4625283872970193,0.5028913207630892,0,0.24733363091945648,0.24733363091945648,0.8654880628136296,0.5661020458197841,1,1.0,0,863.0,0.00484769232571125,0.005270782392472029,0.03466636314988136,0.029395580291748047,0.006682594772428274,0.0024296026676893234,0.021504145115613937,0.01784619502723217,5.925412654876709,106.3843765258789
subject_04,window4,4,1,stress,1,Task1,180.0,240.0,1.0,2108.734375,188.734375,0.0,0.0,0,0,0.021354166666666667,0,73,0,0.9722222222222222,0.5416666666666666,0.9722222222222222,0.8140190972222222,0.8669198347346494,0.6599293351173401,2.941572666168213,0.8160500260552371,1,0.7893670101597233,0.9036081746511025,0.8904618331796113,0.675270677815867,0.9036081746511025,1,3.4540576934814453,1.0,0.571187061531506,-0.2613432630925582,1,1.0,0,853.0,0.005589565262198448,0.006963954772800207,0.04167471081018448,0.034710757434368134,0.00988154299557209,0.002330971881747246,0.017926590517163277,0.0144684799015522,5.661797046661377,63.744266510009766
subject_04,window5,5,1,stress,1,Task1,240.0,300.0,1.0,2108.734375,188.734375,0.0,0.0,0,0,0.021614583333333333,0,79,0,1.0,0.5256410256410257,1.0,0.7538060897435898,0.6681524830520928,0.8020764887332916,2.8174235820770264,0.9405940594059405,1,0.7932276242055007,0.8624881360778481,0.8024499873040392,0.5309453832485777,0.8624881360778481,0,3.264251232147217,1.0,0.5107021551720382,-0.2747504493613462,1,1.0,0,952.0,0.006578931584954262,0.006562505848705769,0.040617685765028,0.034055180847644806,0.00815322995185852,0.003097661305218935,0.024350129067897797,0.0194319449365139,6.121369361877441,45.61656188964844
subject_04,window6,6,1,stress,1,Task1,300.0,360.0,1.0,2108.734375,188.734375,0.0,0.0,0,0,0.021614583333333333,0,74,0,0.9726027397260274,0.589041095890411,0.9726027397260274,0.8054366438356164,0.8297194294505271,0.8619299530982971,1.966068148612976,0.8858780614903595,1,0.8624103402030283,0.8875431448063996,0.8461564636632812,0.8098488871475169,0.8875431448063996,0,2.316899299621582,1.0,0.5790528151365281,-0.20585477765046523,1,1.0,0,944.0,0.005298958625644445,0.006018124986439943,0.04073259234428406,0.0347144678235054,0.008150428533554077,0.0021540620364248753,0.019525110721588135,0.016606004908680916,5.9531755447387695,68.65637969970703
subject_04,window7,7,1,stress,1,Task1,360.0,420.0,1.0,2108.734375,188.734375,0.0,0.0,0,0,0.021875,0,82,0,1.0,0.654320987654321,1.0,0.7351466049382716,0.7888278429085684,0.7275319695472717,2.1621720790863037,0.8697238144867119,1,0.7997817767592493,0.8379218696668067,0.8481025266345669,0.7240488627239441,0.8481025266345669,0,2.548464059829712,1.0,0.598376747934299,-0.22461375058974364,1,1.0,0,908.0,0.006535027176141739,0.007039827760308981,0.044491421431303024,0.037451595067977905,0.009477315470576286,0.0025858122389763594,0.01932523027062416,0.015580070205032825,5.939929008483887,37.32138442993164
subject_04,window8,8,1,stress,1,Task1,420.0,480.0,1.0,2108.734375,188.734375,0.0,0.0,0,0,0.021614583333333333,0,80,0,1.0,0.7215189873417721,1.0,0.7478243670886076,0.7747693218173223,0.8674060702323914,2.350259780883789,0.9072433559145389,1,0.798090806285525,0.7954932637136919,0.834595370214107,0.5427741019699838,0.834595370214107,0,3.021118640899658,1.0,0.6210383914819054,-0.17300045578503997,1,1.0,0,915.0,0.007054824382066727,0.008956958539783955,0.05019676685333252,0.04123980924487114,0.012699826620519161,0.002853487618267536,0.022096071392297745,0.017915625125169754,5.811728000640869,19.544586181640625
subject_04,window9,9,1,stress,1,Task1,480.0,540.0,1.0,2108.734375,188.734375,0.0,0.0,0,0,0.023177083333333334,0,84,0,1.0,0.5783132530120482,1.0,0.7083960843373494,0.7311056469609426,0.7472235560417175,2.794520378112793,0.9332985930171964,1,0.8172220281161797,0.8458956092484853,0.8485606726621177,0.39603135780593635,0.8485606726621177,0,3.392202377319336,1.0,0.5506569952931021,-0.25692372334572045,1,1.0,0,962.0,0.007294129580259323,0.007393233478069305,0.04913213476538658,0.041738901287317276,0.008945189416408539,0.0037581846117973328,0.027339192107319832,0.022200528532266617,6.192648410797119,28.095043182373047
subject_04,window10,10,1,stress,1,Task1,540.0,600.0,1.0,2108.734375,188.734375,0.0,0.0,0,0,0.022916666666666665,0,91,0,1.0,0.4888888888888889,1.0,0.6579861111111112,0.6204334618457716,1.0,2.117837429046631,0.918186555497655,1,0.7739904306147464,0.7267500973085251,0.7464179708080066,0.43487039131858457,0.7739904306147464,0,2.5342044830322266,1.0,0.48168559410928713,-0.2482249678718904,1,1.0,0,960.0,0.008607584983110428,0.00848808977752924,0.05128306895494461,0.042794980108737946,0.010489773005247116,0.004034386016428471,0.031452976167201996,0.025379793718457222,6.171280860900879,18.51496124267578
subject_04,window11,11,1,stress,1,Task1,600.0,660.0,1.0,2108.734375,188.734375,0.0,0.0,0,0,0.0234375,0,88,0,1.0,0.5172413793103449,1.0,0.6839080459770115,0.6991741933919156,0.829208105802536,2.0071048736572266,0.918186555497655,1,0.7978624008334582,0.8527899574685261,0.7813736802209811,0.5756706382693735,0.8527899574685261,0,2.588108539581299,1.0,0.5166488097417127,-0.2627320114082836,1,1.0,0,931.0,0.006962288171052933,0.007576191332191229,0.051165975630283356,0.04358978196978569,0.009767015464603901,0.0033507663756608963,0.027767885476350784,0.022225884720683098,6.006161212921143,112.50041961669922
subject_04,window12,12,1,stress,1,Task1,660.0,720.0,1.0,2108.734375,188.734375,0.0,0.0,0,0,0.021875,0,80,0,0.9746835443037974,0.6455696202531646,0.9746835443037974,0.7484177215189873,0.7804525664106776,0.7899641394615173,1.4486584663391113,0.8884835852006253,1,0.8382075849345196,0.7980630420707795,0.812368008582921,0.5641143928356015,0.8382075849345196,0,1.8444557189941406,1.0,0.5873003268852286,-0.21878822859524238,1,1.0,0,966.0,0.008609820157289505,0.008604058064520359,0.050820041447877884,0.0422159843146801,0.011112677864730358,0.003598281182348728,0.028094954788684845,0.02276773564517498,6.085572719573975,29.772886276245117
subject_04,window13,13,1,stress,1,Task1,720.0,780.0,1.0,2108.734375,188.734375,0.0,0.0,0,0,0.022135416666666668,0,79,0,0.9743589743589743,0.5256410256410257,0.9743589743589743,0.7636217948717948,0.7416563831120823,0.9140749573707581,1.9555621147155762,0.9390307451797811,1,0.8082656584415905,0.8200948280911703,0.7744155405591043,0.6046162136466294,0.8200948280911703,0,2.3727426528930664,1.0,0.5276251200618298,-0.23350306231518736,1,1.0,0,956.0,0.007752920035272837,0.007322137244045734,0.04544593393802643,0.03812379762530327,0.008905591443181038,0.003554182592779398,0.027536636218428612,0.022630132734775543,6.183769226074219,46.786556243896484
subject_04,window14,14,0,normal,0,Rest2,780.0,840.0,1.0,2108.734375,188.734375,0.0,0.0,0,0,0.021354166666666667,0,75,0,0.9864864864864865,0.6756756756756757,0.9864864864864865,0.7970861486486487,0.7927250586507535,0.8635902404785156,1.4302141666412354,0.7457008858780615,1,0.8346776670622446,0.8055697421646818,0.8421314374509498,0.8456525443341237,0.8456525443341237,0,2.115055561065674,1.0,0.6053850851627937,-0.1859211752176827,1,1.0,0,884.0,0.004984406754374504,0.00746836606413126,0.049881547689437866,0.04241317883133888,0.011198769323527813,0.0019764197058975697,0.015116296708583832,0.012683923356235027,5.586553573608398,31.611356735229492
subject_04,window15,15,0,normal,0,Rest2,840.0,900.0,1.0,2108.734375,188.734375,0.0,0.0,0,0,0.02421875,0,66,0,1.0,0.9076923076923077,1.0,0.9129807692307692,0.8461881992395908,1.0,0.4735700786113739,0.6805627931214174,1,0.19373823135655185,0.36383150674778864,-0.7315661435637835,0.1106212029502636,0.36383150674778864,0,0.7653391361236572,0.7653391361236572,0.7403994692364346,0.16851560599393278,1,1.0,0,862.0,0.00447387108579278,0.005600621923804283,0.03395340219140053,0.028352780267596245,0.007921016775071621,0.0020892894826829433,0.01840183511376381,0.015520353801548481,5.411454200744629,399.4105224609375
subject_04,window16,16,1,stress,1,Task2,900.0,960.0,1.0,2108.734375,188.734375,0.0,0.0,0,0,0.023177083333333334,0,80,0,1.0,0.5316455696202531,1.0,0.7498022151898734,0.6822754200138905,0.9815881848335266,1.8685086965560913,0.8191766545075561,1,0.8510525573891999,0.7952533622127164,0.7347693152151717,0.43185470609469734,0.8510525573891999,0,2.7133755683898926,1.0,0.5173408538522685,-0.22454042790206974,1,1.0,0,869.0,0.008014713414013386,0.008480195887386799,0.05054011568427086,0.042059917002916336,0.011299680918455124,0.0033805593848228455,0.029834432527422905,0.023649342358112335,5.840029716491699,187.44049072265625
subject_04,window17,17,1,stress,1,Task2,960.0,1020.0,1.0,2108.734375,188.734375,0.0,0.0,0,0,0.022916666666666665,0,86,0,0.9882352941176471,0.4823529411764706,0.9882352941176471,0.6994485294117647,0.702633004474345,0.7203611731529236,3.186147928237915,0.9270453361125586,1,0.7514356558676439,0.8730180084476333,0.8221963795544526,0.6098136382996446,0.8730180084476333,0,3.967475414276123,1.0,0.5013781366364212,-0.3018985144167122,1,1.0,0,983.0,0.007122071459889412,0.0070317271165549755,0.04350005090236664,0.036468323320150375,0.008366343565285206,0.003664572723209858,0.027639146894216537,0.022269021719694138,6.254579067230225,13.030743598937988
subject_04,window18,18,1,stress,1,Task2,1020.0,1080.0,1.0,2108.734375,188.734375,0.0,0.0,0,0,0.021354166666666667,0,84,0,1.0,0.5542168674698795,1.0,0.7193147590361446,0.6768356174592327,0.79899001121521,3.808048963546753,0.9541427826993225,1,0.7914990574542149,0.8605252816589857,0.824576207392003,0.46756443495617167,0.8605252816589857,0,4.3824567794799805,1.0,0.5247374322257217,-0.2647785325904255,1,1.0,0,944.0,0.006420452147722244,0.007063761819154024,0.043522655963897705,0.03645889461040497,0.009213186800479889,0.0030700629577040672,0.023143624886870384,0.01896817982196808,6.030819892883301,29.797182083129883
subject_04,window19,19,1,stress,1,Task2,1080.0,1140.0,1.0,2108.734375,188.734375,0.0,0.0,0,0,0.022135416666666668,0,95,0,1.0,0.7021276595744681,1.0,0.6261635638297872,0.6885597305231801,0.8985981941223145,4.097753047943115,0.9729025534132361,1,0.732327219163392,0.9116742865675614,0.7772549839110761,0.6982618263419847,0.9116742865675614,1,4.760178565979004,1.0,0.5874189829867412,-0.1925722209662859,1,1.0,0,960.0,0.006756037473678589,0.007175491191446781,0.04593382030725479,0.038758330047130585,0.009430107660591602,0.0029438717756420374,0.02423943020403385,0.02028939314186573,6.019183158874512,111.59120178222656
subject_04,window20,20,1,stress,1,Task2,1140.0,1200.0,1.0,2108.734375,188.734375,0.0,0.0,0,0,0.023177083333333334,0,87,0,1.0,0.6976744186046512,1.0,0.6871366279069767,0.7260902896775381,0.8631073236465454,3.0281107425689697,0.9676915059927045,1,0.7149432228444692,0.929273068030597,0.7901158042127188,0.43838318809830895,0.929273068030597,1,3.596097707748413,1.0,0.596896854345122,-0.19339827108758367,1,1.0,0,946.0,0.007207010872662067,0.007223965134471655,0.04808615520596504,0.04086218774318695,0.009028937667608261,0.003408682532608509,0.026149697601795197,0.021516410633921623,6.119970321655273,35.1774787902832
subject_04,window21,21,0,normal,0,Rest3,1200.0,1260.0,1.0,2108.734375,188.734375,0.0,0.0,0,0,0.021354166666666667,0,74,0,1.0,0.8767123287671232,1.0,0.7996575342465754,0.7910360234652156,1.0,2.174600124359131,0.7842626367899947,1,0.8208513020710032,0.8819530283578975,0.8311524068797769,0.8607796693338753,0.8819530283578975,0,2.95853590965271,1.0,0.687995738546414,-0.08922729550355912,1,1.0,0,905.0,0.005690775811672211,0.0072733438573777676,0.04449488967657089,0.03722154721617699,0.01023846585303545,0.0025259405374526978,0.01977117545902729,0.016450820490717888,5.693714141845703,110.19781494140625
subject_04,window22,22,0,normal,0,Rest3,1260.0,1320.0,1.0,2108.734375,188.734375,0.0,0.0,0,0,0.021354166666666667,0,66,0,1.0,0.8153846153846154,1.0,0.9170673076923077,0.8683464089563269,0.8612901568412781,0.46805089712142944,0.4940072954663887,1,0.521921706227878,0.6671635847787188,0.5160371705559468,-0.4923851301659047,0.6671635847787188,0,0.7544413805007935,0.7544413805007935,0.7112136307906648,0.1225831455639923,1,1.0,0,912.0,0.004264345392584801,0.005480202846229076,0.038368433713912964,0.03288822993636131,0.007535326294600964,0.002137894742190838,0.018656034022569656,0.01603783667087555,5.70649528503418,207.7707061767578
subject_04,window23,23,1,stress,1,Task3,1320.0,1380.0,1.0,2108.734375,188.734375,0.0,0.0,0,0,0.02265625,0,80,0,0.9873417721518988,0.5443037974683544,0.9873417721518988,0.7482199367088608,0.8015705627640264,0.7386009097099304,1.387691855430603,0.6935904116727463,1,0.7435649920869771,0.6734305481157512,0.7945595754268368,0.8156409590524342,0.8156409590524342,0,1.7501678466796875,1.0,0.5556610422469295,-0.2541976382106247,1,1.0,0,884.0,0.006525302305817604,0.0077174450270831585,0.04767898842692375,0.039961542934179306,0.010836569592356682,0.0026177987456321716,0.022825781255960464,0.018719028681516647,5.726954936981201,79.63378143310547
subject_04,window24,24,1,stress,1,Task3,1380.0,1440.0,1.0,2108.734375,188.734375,0.0,0.0,0,0,0.02265625,0,88,0,1.0,0.6436781609195402,1.0,0.6752873563218391,0.7511163433433379,0.7954885363578796,2.3968253135681152,0.9577905158936947,1,0.7819339716063458,0.8775751844513352,0.8516486876311953,0.6513062461386367,0.8775751844513352,0,2.874817371368408,1.0,0.5828061673708175,-0.22024533179883354,1,1.0,0,992.0,0.007762715220451355,0.008015531115233898,0.04919775202870369,0.04118221998214722,0.009810686111450195,0.003973567392677069,0.029305199161171913,0.02361331880092621,6.19500732421875,51.922607421875
subject_04,window25,25,1,stress,1,Task3,1440.0,1500.0,1.0,2108.734375,188.734375,0.0,0.0,0,0,0.022916666666666665,0,87,0,1.0,0.6046511627906976,1.0,0.6871366279069767,0.7851050860713028,0.8683958053588867,2.8400044441223145,0.9630015633142261,1,0.8610481408161695,0.9130346533607043,0.896570390943354,0.8436592407441089,0.9130346533607043,1,3.4550929069519043,1.0,0.57739199093767,-0.20522942830524338,1,1.0,0,950.0,0.008734043687582016,0.007895439863204956,0.045129623264074326,0.03723418340086937,0.009433386847376823,0.004319319035857916,0.031178388744592667,0.02512742206454277,6.199521064758301,28.754043579101562
subject_04,window26,26,0,normal,0,Rest4,1500.0,1560.0,1.0,2108.734375,188.734375,0.0,0.0,0,0,0.021875,0,78,0,0.987012987012987,0.6493506493506493,0.987012987012987,0.7607548701298701,0.7336887656912756,0.8974446356296539,2.7075095176696777,0.8994267847837415,1,0.907840584535983,0.80821448525319,0.8835145798066719,0.8906739477955619,0.907840584535983,1,3.8299224376678467,1.0,0.5772494868502399,-0.2000088574619754,1,1.0,0,969.0,0.009108023717999458,0.008030409924685955,0.04834999144077301,0.04031958058476448,0.009781381115317345,0.003963920287787914,0.0324997752904892,0.026684489101171494,6.197072982788086,52.20180130004883
subject_04,window27,27,0,normal,0,Rest4,1560.0,1620.0,1.0,2108.734375,188.734375,0.0,0.0,0,0,0.020833333333333332,0,72,0,1.0,0.6197183098591549,1.0,0.8259242957746479,0.7196395729759066,0.8037756979465485,1.3756089210510254,0.7894736842105263,1,0.8325500256564639,0.7121937947839952,0.8420095511702967,0.1363975373666571,0.8420095511702967,0,1.7305845022201538,1.0,0.563779195836434,-0.23323068931163982,1,1.0,0,937.0,0.00747167132794857,0.008540322072803974,0.05353517457842827,0.04499485343694687,0.011729027144610882,0.0031981132924556732,0.025721486657857895,0.021380549296736717,5.889328479766846,45.677513122558594
subject_04,window28,28,1,stress,1,Task4,1620.0,1680.0,1.0,2108.734375,188.734375,0.0,0.0,0,0,0.021354166666666667,0,76,0,1.0,0.68,1.0,0.7933333333333333,0.8203546524716179,0.8258305788040161,1.4344825744628906,0.7503908285565398,1,0.7616575809699914,0.8034958110305055,0.3125385901853001,-0.14960477845298198,0.8034958110305055,0,2.535466194152832,1.0,0.6181063957414853,-0.18445369218109153,1,1.0,0,922.0,0.0059440527111291885,0.007603503298014402,0.04908892884850502,0.04148542508482933,0.010589564219117165,0.0028131380677223206,0.02327941730618477,0.019509896636009216,5.827426433563232,42.3924446105957
subject_04,window29,29,1,stress,1,Task4,1680.0,1740.0,1.0,2108.734375,188.734375,0.0,0.0,0,0,0.022395833333333334,0,86,0,1.0,0.9411764705882353,1.0,0.703125,0.9719841046045723,0.9603386521339417,0.3506128787994385,0.5059927045336112,1,0.08830582271836865,0.05533002979383655,0.018464325617471165,-0.12695235254319387,0.08830582271836865,0,0.41481149196624756,0.41481149196624756,0.826584670420041,0.5506221383948515,1,1.0,0,880.0,0.006423551589250565,0.007561166770756245,0.05245383456349373,0.04489266872406006,0.010245691053569317,0.0031567569822072983,0.026982920244336128,0.022355256602168083,5.612318515777588,197.65196228027344
subject_04,window30,30,1,stress,1,Task4,1740.0,1800.0,1.0,2108.734375,188.734375,0.0,0.0,0,0,0.023697916666666666,0,73,0,1.0,0.9861111111111112,1.0,0.8181423611111112,0.9807201965180903,1.0,0.369468092918396,0.4773319437206879,1,0.43443824783841384,0.20453029354311383,0.3943202075673137,-0.007701544564800418,0.43443824783841384,0,0.4333879053592682,0.4333879053592682,0.8453217128639448,0.5576254771035878,1,1.0,0,850.0,0.005356905981898308,0.005741240456700325,0.03381126746535301,0.028070025146007538,0.006974549498409033,0.0029130829498171806,0.0229840986430645,0.01906285434961319,6.000149726867676,94.31071472167969
subject_04,window31,31,0,normal,0,Rest5,1808.734375,1868.734375,1.0,2108.734375,188.734375,0.0,0.0,0,0,0.02109375,0,81,0,0.9875,0.525,0.9875,0.7359375,0.681898950487847,0.9053167402744293,0.7247303128242493,0.6670140698280355,1,0.7423403253591536,0.6369127570814306,0.7879193400082721,0.1294576520778911,0.7879193400082721,0,1.0217647552490234,1.0,0.5120696851463541,-0.24819607730943094,1,1.0,0,946.0,0.007816003635525703,0.007746485061943531,0.04888489097356796,0.041138406842947006,0.009536447934806347,0.003624203847721219,0.03294562175869942,0.02633453533053398,6.157360076904297,28.55370330810547
subject_04,window32,32,0,normal,0,Rest5,1868.734375,1928.734375,1.0,2108.734375,188.734375,0.0,0.0,0,0,0.023177083333333334,0,77,0,1.0,0.6052631578947368,1.0,0.7793996710526315,0.8354934417992457,0.6978338956832886,0.5540475249290466,0.535695674830641,1,0.7267936509660461,0.5851796365470593,0.6644074711558728,0.1730138796842598,0.7267936509660461,0,0.8093314170837402,0.8093314170837402,0.6118201539892945,-0.044420635344685655,1,1.0,0,939.0,0.007656826637685299,0.008257278241217136,0.05367422103881836,0.0454169437289238,0.011430145241320133,0.002969454973936081,0.026211855933070183,0.02187349461019039,5.8973870277404785,46.460330963134766
subject_04,window33,33,1,stress,1,Task5,1928.734375,1988.734375,1.0,2108.734375,188.734375,0.0,0.0,0,0,0.021354166666666667,0,90,0,1.0,0.651685393258427,1.0,0.6704705056179775,0.7078417097651128,0.934749960899353,0.7076563239097595,0.7316310578426264,1,0.5200905373612316,0.3969071029108952,0.6748507186026613,0.1501580478151864,0.6748507186026613,0,1.1090943813323975,1.0,0.5730266702329047,-0.19384646435635533,1,1.0,0,995.0,0.007197808474302292,0.010035081766545773,0.05722077935934067,0.04718569666147232,0.014462106861174107,0.0031644199043512344,0.021579263731837273,0.018063852563500404,5.813022613525391,41.90996551513672
subject_04,window34,34,0,normal,0,Rest6,1988.734375,2048.734375,1.0,2108.734375,188.734375,0.0,0.0,0,0,0.023177083333333334,0,75,0,1.0,0.4864864864864865,1.0,0.799831081081081,0.7711721204195363,1.0,0.9917377233505249,0.8624283480979676,1,0.41752618660538826,0.5041048853041907,0.7214450483970667,-0.2595646408410121,0.7214450483970667,0,1.2718207836151123,1.0,0.5259462307204555,-0.2112610239491699,1,1.0,0,970.0,0.006512042135000229,0.0078062922693789005,0.05070187523961067,0.04289558529853821,0.010271026752889156,0.003299230709671974,0.026420563459396362,0.022040793672204018,5.972207546234131,62.29631805419922
subject_04,window35,35,0,normal,0,Rest6,2048.734375,2108.734375,1.0,2108.734375,188.734375,0.0,0.0,0,0,0.023958333333333335,0,80,0,1.0,0.5189873417721519,1.0,0.7525712025316456,0.719745386980037,0.8801935017108917,1.1466221809387207,0.8957790515893694,1,0.6449272706205641,0.547264136115476,0.7269780728315777,-0.03599905652672818,0.7269780728315777,0,1.431267261505127,1.0,0.523518552802872,-0.24431907529562225,1,1.0,0,951.0,0.00814487412571907,0.007572523318231106,0.04401061311364174,0.03643808886408806,0.008832293562591076,0.004197347909212112,0.032661210745573044,0.02628694474697113,6.24729061126709,18.468774795532227
subject_05,window1,1,0,normal,0,Rest1,0.0,60.0,1.0,2083.75,163.75,0.0,0.0,0,0,0.022916666666666665,0,66,0,0.9846153846153847,0.9846153846153847,0.9846153846153847,0.89375,0.9958016576041651,1.0,1480928.375,0.6367899947889526,1,-0.5645313553441219,-0.1178554346432657,-0.01626989585390274,-0.5416652303174715,-0.01626989585390274,0,32428608.0,1.0,0.7895097280504805,-0.0087418932912664,1,1.0,0,799.0,0.004225145094096661,0.006009385921061039,0.04314709082245827,0.037137702107429504,0.008456633426249027,0.0022029411047697067,0.016162393614649773,0.013558492064476013,5.587827682495117,89.24894714355469
subject_05,window2,2,0,normal,0,Rest1,60.0,120.0,1.0,2083.75,163.75,0.0,0.0,0,0,0.023177083333333334,0,72,0,1.0,1.0,1.0,0.8367077464788732,0.9951688417865164,1.0,0.38512465357780457,0.5383011985409067,1,0.029285644013314842,0.1567709515750614,-0.15218089366511717,-0.20238896201801013,0.1567709515750614,0,0.35231781005859375,0.35231781005859375,0.8633188715300957,0.6464744003880354,1,1.0,0,786.0,0.004041822627186775,0.004832856822758913,0.031259626150131226,0.02642676793038845,0.006104830652475357,0.0022587308194488287,0.01821546070277691,0.015278969891369343,5.810445785522461,383.24774169921875
subject_05,window3,3,0,normal,0,Rest1,120.0,180.0,1.0,2083.75,163.75,0.0,0.0,0,0,0.026041666666666668,0,73,0,1.0,0.9861111111111112,1.0,0.8179253472222222,0.9935236965599246,1.0,0.28958287835121155,0.4319958311620636,1,0.18727819211351726,0.0952801388572529,-0.022760249830039433,-0.20268423238055477,0.18727819211351726,0,0.19002512097358704,0.19002512097358704,0.8734990413150632,0.8041891364997273,1,1.0,0,870.0,0.005677118897438049,0.005642775446176529,0.03473531827330589,0.029092540964484215,0.0069198813289403915,0.0026674456894397736,0.02178804948925972,0.018445000052452087,6.009559154510498,227.8360137939453
subject_05,window4,4,1,stress,1,Task1,180.0,240.0,1.0,2083.75,163.75,0.0,0.0,0,0,0.022916666666666665,0,92,0,1.0,0.6593406593406593,1.0,0.654532967032967,0.6562605161778211,0.8772597312927246,2.1195523738861084,0.8963001563314226,1,0.7936505891202961,0.8634493970232296,0.9210507282690477,0.21755211705824135,0.9210507282690477,1,2.495464324951172,1.0,0.5606144185896101,-0.21881774033016577,1,1.0,0,926.0,0.009408017620444298,0.008527297526597977,0.04878001660108566,0.040252719074487686,0.010340511798858643,0.00424321461468935,0.03254586458206177,0.02578115276992321,6.17395544052124,11.083626747131348
subject_05,window5,5,1,stress,1,Task1,240.0,300.0,1.0,2083.75,163.75,0.0,0.0,0,0,0.022135416666666668,0,87,0,1.0,0.5465116279069767,1.0,0.6869549418604651,0.7132737181292119,0.8421513438224792,2.6729843616485596,0.9640437727983324,1,0.8493350432016306,0.9505604227763743,0.8750103626513024,0.058912973458736764,0.9505604227763743,1,3.5069754123687744,1.0,0.5325867666015544,-0.2471902461399842,1,1.0,0,946.0,0.007044266443699598,0.007204006891697645,0.0437205545604229,0.036516547203063965,0.008435535244643688,0.003818511962890625,0.0300217866897583,0.02458162233233452,6.212539196014404,53.66423797607422
subject_05,window6,6,1,stress,1,Task1,300.0,360.0,1.0,2083.75,163.75,0.0,0.0,0,0,0.02265625,0,91,0,1.0,0.5,1.0,0.659375,0.7463430820093668,0.7878448069095612,3.3220224380493164,0.9848879624804586,1,0.8399232504304555,0.9143141734487308,0.9216105446504124,0.38956579302480576,0.9216105446504124,1,4.0840654373168945,1.0,0.5239029246028101,-0.2664530277702679,1,1.0,0,977.0,0.007345244288444519,0.007145656738430262,0.04840663820505142,0.0412609837949276,0.008342132903635502,0.003855416551232338,0.03126775845885277,0.02516600862145424,6.254239559173584,42.95099639892578
subject_05,window7,7,1,stress,1,Task1,360.0,420.0,1.0,2083.75,163.75,0.0,0.0,0,0,0.02265625,0,92,0,1.0,0.5714285714285714,1.0,0.6569368131868132,0.7125555712021147,0.7382593154907227,3.4684042930603027,0.9577905158936947,1,0.8979512568600113,0.9361873313443589,0.9291957743780848,0.6110901535709045,0.9361873313443589,1,4.204591274261475,1.0,0.542338099932063,-0.26586770689821926,1,1.0,0,948.0,0.008276931010186672,0.0076607828959822655,0.04607027396559715,0.03840949386358261,0.008644048124551773,0.004356561694294214,0.03161083161830902,0.025289464741945267,6.292479991912842,17.986968994140625
subject_05,window8,8,1,stress,1,Task1,420.0,480.0,1.0,2083.75,163.75,0.0,0.0,0,0,0.021354166666666667,0,95,0,1.0,0.6170212765957447,1.0,0.6353058510638298,0.696974935671837,0.8055078983306885,2.5268714427948,0.9093277748827514,1,0.84872743682708,0.9366089063855454,0.9208599926469114,0.49845216298742706,0.9366089063855454,1,2.8958911895751953,1.0,0.555900991339849,-0.2392729085206453,1,1.0,0,974.0,0.008336212486028671,0.00784508977085352,0.045447345823049545,0.0376022569835186,0.009097293019294739,0.004351929295808077,0.03162657842040062,0.02583484724164009,6.279884338378906,16.348201751708984
subject_05,window9,9,1,stress,1,Task1,480.0,540.0,1.0,2083.75,163.75,0.0,0.0,0,0,0.021875,0,92,0,1.0,0.5934065934065934,1.0,0.6483516483516484,0.704352566131804,0.8237062692642212,2.627385139465332,0.918186555497655,1,0.9116136273667761,0.9391283172487005,0.9561278865308482,0.5388090183012852,0.9561278865308482,1,3.2543272972106934,1.0,0.5486684072021787,-0.23996331312901575,1,1.0,0,955.0,0.008288594894111156,0.0076789576560258865,0.04921160265803337,0.041532643139362335,0.009316236712038517,0.003956248983740807,0.0307125486433506,0.025310438126325607,6.167279243469238,53.13003921508789
subject_05,window10,10,1,stress,1,Task1,540.0,600.0,1.0,2083.75,163.75,0.0,0.0,0,0,0.02265625,0,92,0,1.0,0.5934065934065934,1.0,0.6351304945054945,0.7407894595033613,0.9191931486129761,2.835186004638672,0.9072433559145389,1,0.8200539722337709,0.8970385881271257,0.8816931097772269,0.6731807306748131,0.8970385881271257,0,3.416240692138672,1.0,0.5595994752136458,-0.2069823699489377,1,1.0,0,958.0,0.008254583925008774,0.007940116338431835,0.046977948397397995,0.039037834852933884,0.009461474604904652,0.004226351622492075,0.03422534093260765,0.02841196209192276,6.221796035766602,21.809886932373047
subject_05,window11,11,1,stress,1,Task1,600.0,660.0,1.0,2083.75,163.75,0.0,0.0,0,0,0.021614583333333333,0,91,0,1.0,0.7,1.0,0.6588541666666666,0.7236889758946533,0.8058370649814606,3.8429272174835205,0.9682126107347577,1,0.8849119102173849,0.8572787581257891,0.8548119853724365,0.4536085787524734,0.8849119102173849,0,5.075261116027832,1.0,0.597106692768396,-0.20761848978097153,1,1.0,0,972.0,0.008374534547328949,0.008028476499021053,0.04662845656275749,0.038599979132413864,0.009496008977293968,0.004403028637170792,0.03187588229775429,0.02553081139922142,6.224201679229736,127.17411804199219
subject_05,window12,12,1,stress,1,Task1,660.0,720.0,1.0,2083.75,163.75,0.0,0.0,0,0,0.022395833333333334,0,92,0,1.0,0.5934065934065934,1.0,0.6449175824175825,0.6926671626869251,0.8247921466827393,2.615036964416504,0.8963001563314226,1,0.8914159263400088,0.917622316529622,0.8603870829644432,0.5853990997859654,0.917622316529622,1,3.1012539863586426,1.0,0.5451627861687149,-0.24261319463560582,1,1.0,0,982.0,0.008354311808943748,0.007643547840416431,0.046244800090789795,0.03860125318169594,0.009157951921224594,0.0039858147501945496,0.0298202745616436,0.024643218144774437,6.236300945281982,27.438844680786133
subject_05,window13,13,1,stress,1,Task1,720.0,780.0,1.0,2083.75,163.75,0.0,0.0,0,0,0.021354166666666667,0,85,0,1.0,0.6309523809523809,1.0,0.7034970238095238,0.7070747826007402,0.8845867812633514,1.7528736591339111,0.7998957790515894,1,0.8538313767071088,0.8761585028758356,0.8272142739469511,0.5290412930678516,0.8761585028758356,0,2.313443660736084,1.0,0.5645033871611745,-0.21279889474826286,1,1.0,0,945.0,0.006779045797884464,0.006556056439876556,0.04203362762928009,0.035477571189403534,0.008169404231011868,0.0032543018460273743,0.024703359231352806,0.0206094179302454,6.0978007316589355,104.79483032226562
subject_05,window14,14,0,normal,0,Rest2,780.0,840.0,1.0,2083.75,163.75,0.0,0.0,0,0,0.021875,0,87,0,1.0,0.5813953488372093,1.0,0.6936773255813954,0.6728293811511344,1.0,2.352086067199707,0.8655549765502866,1,0.8654640650427747,0.7823549157635893,0.884837503207303,0.7197535696171087,0.884837503207303,0,2.914505958557129,1.0,0.5344069538802242,-0.20737405006105358,1,1.0,0,1003.0,0.00778166763484478,0.0073905568569898605,0.04470234736800194,0.03731178864836693,0.008659985847771168,0.0040895454585552216,0.03184622898697853,0.026423214003443718,6.287309169769287,22.274282455444336
subject_05,window15,15,0,normal,0,Rest2,840.0,900.0,1.0,2083.75,163.75,0.0,0.0,0,0,0.021875,0,88,0,1.0,0.7011494252873564,1.0,0.6752873563218391,0.8450103010902652,1.0,1.5064030885696411,0.7592496091714435,1,0.8427775060650544,0.7028899669490034,0.726462664963789,0.7062235930203544,0.8427775060650544,0,2.069305896759033,1.0,0.6339628604420221,-0.12840259714122682,1,1.0,0,943.0,0.008168035186827183,0.007946675643324852,0.04701513797044754,0.03906846418976784,0.009683161973953247,0.003965634852647781,0.03053698129951954,0.025538135319948196,6.155144691467285,72.7099380493164
subject_05,window16,16,1,stress,1,Task2,900.0,960.0,1.0,2083.75,163.75,0.0,0.0,0,0,0.021354166666666667,0,84,0,1.0,0.7710843373493976,1.0,0.6995481927710844,0.8303911591159786,1.0,2.1579201221466064,0.7686294945284002,1,0.8778475824824977,0.9542469876696575,0.9151168279253054,0.7226094208770947,0.9542469876696575,1,2.5630035400390625,1.0,0.6575510826745526,-0.11107690901618605,1,1.0,0,969.0,0.00686008483171463,0.006880132481455803,0.04758357256650925,0.04070344194769859,0.008944394066929817,0.0030002761632204056,0.02830248512327671,0.02366035431623459,6.057730197906494,44.476524353027344
subject_05,window17,17,1,stress,1,Task2,960.0,1020.0,1.0,2083.75,163.75,0.0,0.0,0,0,0.022916666666666665,0,94,0,0.989247311827957,0.5698924731182796,0.989247311827957,0.6382728494623656,0.7412804052915267,0.8625035881996155,3.4294936656951904,0.9838457529963522,1,0.8901419351401242,0.9423794901059086,0.9471682599900593,0.7970081889861323,0.9471682599900593,1,4.2108283042907715,1.0,0.5481905732003614,-0.2302367973261391,1,1.0,0,975.0,0.007005347870290279,0.006975857075303793,0.04680391773581505,0.03982805833220482,0.007867787964642048,0.004010824486613274,0.030581997707486153,0.024782974272966385,6.3013200759887695,39.022464752197266
subject_05,window18,18,1,stress,1,Task2,1020.0,1080.0,1.0,2083.75,163.75,0.0,0.0,0,0,0.022916666666666665,0,87,0,1.0,0.6744186046511628,1.0,0.6858648255813954,0.7350604441622179,0.9269663095474243,4.149853706359863,0.986451276706618,1,0.8722672654779261,0.9398270491633924,0.9559093874001463,0.6592796274704943,0.9559093874001463,1,4.9995222091674805,1.0,0.5902855751091306,-0.18216773017724064,1,1.0,0,984.0,0.008048937655985355,0.007128407713025808,0.043572694063186646,0.0364442877471447,0.007934591732919216,0.0044103022664785385,0.03141075000166893,0.025340449064970016,6.348478317260742,20.490951538085938
subject_05,window19,19,1,stress,1,Task2,1080.0,1140.0,1.0,2083.75,163.75,0.0,0.0,0,0,0.02265625,0,87,0,1.0,0.6395348837209303,1.0,0.6876816860465116,0.7524965110530082,0.7749400436878204,3.964003562927246,0.986451276706618,1,0.8518696545933285,0.9564311908076965,0.9236949823942471,0.6067365606795715,0.9564311908076965,1,4.792682647705078,1.0,0.5815629068042746,-0.2262803961985138,1,1.0,0,957.0,0.007817570120096207,0.007572639733552933,0.04674137756228447,0.03916873782873154,0.008613907732069492,0.004466721788048744,0.03315858542919159,0.026509957388043404,6.261934757232666,41.47123718261719
subject_05,window20,20,1,stress,1,Task2,1140.0,1200.0,1.0,2083.75,163.75,0.0,0.0,0,0,0.023177083333333334,0,91,0,1.0,0.6111111111111112,1.0,0.6583333333333333,0.7341825042444589,0.8650815188884735,4.682105541229248,0.9786347055758208,1,0.847158281934515,0.9459401657107556,0.9152837189645265,0.8017573783672006,0.9459401657107556,1,5.577556610107422,1.0,0.5646991957177822,-0.21685066088343352,1,1.0,0,981.0,0.008689627051353455,0.008031575009226799,0.04538140818476677,0.03734983503818512,0.00907946564257145,0.00486372783780098,0.03511953726410866,0.028747428208589554,6.3222880363464355,17.09180450439453
subject_05,window21,21,0,normal,0,Rest3,1200.0,1260.0,1.0,2083.75,163.75,0.0,0.0,0,0,0.022395833333333334,0,83,0,1.0,0.7073170731707317,1.0,0.7198932926829268,0.7176351113892578,0.9590969681739807,2.8183374404907227,0.9025534132360604,1,0.8889505487757547,0.9005052845228324,0.9399020235070582,0.550592612067337,0.9399020235070582,1,3.6113078594207764,1.0,0.5982173626850701,-0.16862185815797082,1,1.0,0,974.0,0.006922281347215176,0.007195757236331701,0.04373909533023834,0.0365433394908905,0.008673245087265968,0.003558915574103594,0.028235625475645065,0.023428723216056824,6.2052178382873535,49.532493591308594
subject_05,window22,22,0,normal,0,Rest3,1260.0,1320.0,1.0,2083.75,163.75,0.0,0.0,0,0,0.02109375,0,80,0,1.0,0.8354430379746836,1.0,0.7470332278481012,0.9869871672107451,1.0,0.7392350435256958,0.6274101094319958,1,0.7651781099199237,0.753970162171028,0.8369862713090538,0.791229354956081,0.8369862713090538,0,1.1237874031066895,1.0,0.730273365353097,-0.05262029680490865,1,1.0,0,837.0,0.006622549146413803,0.007102831266820431,0.041397858411073685,0.03429502621293068,0.008929352276027203,0.0034206584095954895,0.025094499811530113,0.020485052838921547,5.984467029571533,21.686330795288086
subject_05,window23,23,1,stress,1,Task3,1320.0,1380.0,1.0,2083.75,163.75,0.0,0.0,0,0,0.02109375,0,84,0,1.0,0.7469879518072289,1.0,0.7200677710843374,0.7996071871859391,1.0,2.1016201972961426,0.7978113600833767,1,0.7997717988856392,0.9141464536433852,0.8202148465325919,0.7561541129897803,0.9141464536433852,1,2.6229500770568848,1.0,0.6386773368786732,-0.12600181766134655,1,1.0,0,958.0,0.00733152125030756,0.007514704950153828,0.04607604071497917,0.03856133297085762,0.009363359771668911,0.003658830188214779,0.028807025402784348,0.02404579147696495,6.1092400550842285,81.83135223388672
subject_05,window24,24,1,stress,1,Task3,1380.0,1440.0,1.0,2083.75,163.75,0.0,0.0,0,0,0.024479166666666666,0,89,0,1.0,0.5340909090909091,1.0,0.6653053977272727,0.7643188883915975,0.8496619462966919,3.7045211791992188,0.9739447628973423,1,0.8401472579491563,0.956683762406939,0.9248090931787061,0.7858846711578314,0.956683762406939,1,4.453128814697266,1.0,0.5429320301538428,-0.23627751860065493,1,1.0,0,1000.0,0.007959485985338688,0.007300188299268484,0.044327836483716965,0.037027645856142044,0.008113198913633823,0.004193727858364582,0.03354761004447937,0.02728426083922386,6.372547626495361,8.975067138671875
subject_05,window25,25,1,stress,1,Task3,1440.0,1500.0,1.0,2083.75,163.75,0.0,0.0,0,0,0.021614583333333333,0,80,0,1.0,0.7468354430379747,1.0,0.7539556962025317,0.7241626197261133,1.0,1.560743808746338,0.7592496091714435,1,0.6068880809141266,0.5625314211404738,0.7402707855467219,0.8471465097737113,0.8471465097737113,0,2.370666027069092,1.0,0.6159829631330239,-0.14490871215707934,1,1.0,0,899.0,0.006858742795884609,0.007264760322868824,0.04545476287603378,0.038189999759197235,0.009264678694307804,0.0033345967531204224,0.025300629436969757,0.02141445316374302,6.001624584197998,52.05964279174805
subject_05,window26,26,0,normal,0,Rest4,1500.0,1560.0,1.0,2083.75,163.75,0.0,0.0,0,0,0.022916666666666665,0,77,0,1.0,0.8421052631578947,1.0,0.778577302631579,0.9776097002516233,1.0,0.9105179309844971,0.5930171964564878,1,0.26093040494756764,0.6436698276207967,0.6583907178773017,0.205436044401099,0.6583907178773017,0,2.0895872116088867,1.0,0.7301250153386448,-0.052965995989725734,1,1.0,0,946.0,0.007256397046148777,0.007648490834981203,0.04392419755458832,0.0362757071852684,0.009527571499347687,0.003760383464396,0.02832096442580223,0.0232069231569767,6.0809760093688965,150.77606201171875
subject_05,window27,27,0,normal,0,Rest4,1560.0,1620.0,1.0,2083.75,163.75,0.0,0.0,0,0,0.021875,0,76,0,1.0,0.84,1.0,0.7966666666666666,0.9726790173673014,1.0,0.7482151985168457,0.6274101094319958,1,0.6095579363861741,0.5442274404777744,0.5530141308166093,0.5966983083523489,0.6095579363861741,0,1.079336404800415,1.0,0.7278037052101906,-0.054830245658174626,1,1.0,0,940.0,0.007569351699203253,0.008591701276600361,0.050493594259023666,0.04190189391374588,0.011457890272140503,0.00362379290163517,0.027317548170685768,0.022434715181589127,5.906644344329834,65.99370574951172
subject_05,window28,28,1,stress,1,Task4,1620.0,1680.0,1.0,2083.75,163.75,0.0,0.0,0,0,0.022135416666666668,0,82,0,1.0,0.6790123456790124,1.0,0.7372685185185185,0.8065071899726958,1.0,0.7576726675033569,0.6889004689942678,1,0.6426539258809546,0.542032190656193,0.7104000449552765,0.27424383228603316,0.7104000449552765,0,1.0655722618103027,1.0,0.6135570952634136,-0.1446694988031223,1,1.0,0,935.0,0.006471253000199795,0.0072821700014173985,0.04574311897158623,0.038460951298475266,0.009201825596392155,0.0034595392644405365,0.02601233683526516,0.02162156254053116,6.040085315704346,92.89061737060547
subject_05,window29,29,1,stress,1,Task4,1680.0,1740.0,1.0,2083.75,163.75,0.0,0.0,0,0,0.02109375,0,82,0,1.0,0.6419753086419753,1.0,0.7295524691358025,0.6804142927503276,0.9623871445655823,0.7044557929039001,0.7165190203230849,1,0.27587836560576695,0.5477564002295049,0.5776595270632553,-0.31770663845192715,0.5776595270632553,0,1.1789097785949707,1.0,0.5609144112818885,-0.19670704807842987,1,1.0,0,926.0,0.006057119928300381,0.006348999682813883,0.04443128779530525,0.03808228671550751,0.008009594865143299,0.0029820906929671764,0.024131929501891136,0.01939062960445881,6.055922985076904,64.70845794677734
subject_05,window30,30,0,normal,0,Rest5,1783.75,1843.75,1.0,2083.75,163.75,0.0,0.0,0,0,0.022135416666666668,0,79,0,1.0,0.6666666666666666,1.0,0.7580128205128205,0.6683168711818893,1.0,2.1324026584625244,0.7853048462741011,1,0.8135835378488365,0.8112814072690844,0.8793353873746675,0.8240668936308185,0.8793353873746675,0,3.3333663940429688,1.0,0.5671617280212334,-0.18292078220452768,1,1.0,0,931.0,0.007138537708669901,0.00724450359120965,0.04650714993476868,0.039262644946575165,0.009243988431990147,0.0033060461282730103,0.029093662276864052,0.024600904434919357,6.050390720367432,46.04554748535156
subject_05,window31,31,0,normal,0,Rest5,1843.75,1903.75,1.0,2083.75,163.75,0.0,0.0,0,0,0.021875,0,86,0,0.9882352941176471,0.7294117647058823,0.9882352941176471,0.7022058823529411,0.7679074965087298,1.0,1.6831945180892944,0.6967170401250652,1,0.734956187722693,0.7291305401710187,0.756866632165963,0.5111499329979157,0.756866632165963,0,2.7215428352355957,1.0,0.6197840136585013,-0.1415525376375234,1,1.0,0,950.0,0.007204093039035797,0.007270737085491419,0.04515041410923004,0.03787967562675476,0.00933811441063881,0.0031453948467969894,0.026519399136304855,0.023063985630869865,6.056936740875244,44.890419006347656
subject_05,window32,32,1,stress,1,Task5,1903.75,1963.75,1.0,2083.75,163.75,0.0,0.0,0,0,0.022916666666666665,0,78,0,1.0,0.6883116883116883,1.0,0.7644074675324676,0.6692665089991721,0.8344841599464417,2.428291082382202,0.8963001563314226,1,0.408399714551242,0.4522066231975894,0.6291926854449145,-0.7441255396899088,0.6291926854449145,0,3.0617780685424805,1.0,0.576104628024427,-0.2175688262700901,1,1.0,0,937.0,0.0072878580540418625,0.007313179783523083,0.04395504668354988,0.036641865968704224,0.008888047188520432,0.0035824403166770935,0.029398269951343536,0.02467273734509945,6.1618571281433105,26.23044776916504
subject_05,window33,33,0,normal,0,Rest6,1963.75,2023.75,1.0,2083.75,163.75,0.0,0.0,0,0,0.021875,0,75,0,1.0,0.6081081081081081,1.0,0.7994087837837838,0.6705522611986827,0.9223514497280121,1.4914004802703857,0.7165190203230849,1,0.862614262203095,0.7974035775438577,0.782702677025345,0.755935573780673,0.862614262203095,0,2.426210641860962,1.0,0.5444089216028482,-0.21934163983589383,1,1.0,0,905.0,0.005246419459581375,0.006117638666182756,0.041711367666721344,0.035593725740909576,0.008126058615744114,0.002512856386601925,0.019824786111712456,0.016921736299991608,5.903761386871338,89.93331909179688
subject_05,window34,34,0,normal,0,Rest6,2023.75,2083.75,1.0,2083.75,163.75,0.0,0.0,0,0,0.0234375,0,72,0,1.0,0.8028169014084507,1.0,0.8338468309859155,0.8173384507338222,1.0,0.41114088892936707,0.5336112558624283,1,0.3456621180300124,0.818767034565902,0.39941655739183757,0.1398306152122488,0.818767034565902,0,0.6207908391952515,0.6207908391952515,0.7042492118640018,0.27438884391073937,1,1.0,0,917.0,0.0069898925721645355,0.00727488799020648,0.04491034522652626,0.03763545677065849,0.009290399961173534,0.0032810550183057785,0.025709502398967743,0.020827261731028557,6.049620628356934,23.933849334716797
subject_06,window1,1,0,normal,0,Rest1,0.0,60.0,1.0,2163.734375,243.734375,0.0,0.0,0,0,0.020572916666666666,0,72,0,0.9154929577464789,0.6619718309859155,0.9154929577464789,0.8241637323943662,0.8038357824037543,0.7465937733650208,1481003.75,0.6242834809796769,1,0.7056307198214647,0.6912684072702052,0.6799217106264722,0.7946859992043722,0.7946859992043722,0,32430242.0,1.0,0.5890380586647883,-0.23070247021273582,1,1.0,0,896.0,0.002472923370078206,0.004815873224288225,0.0382290743291378,0.033413201570510864,0.007732931058853865,0.0010282238945364952,0.007838450372219086,0.00649952981621027,5.118574142456055,261.17938232421875
subject_06,window2,2,0,normal,0,Rest1,60.0,120.0,1.0,2163.734375,243.734375,0.0,0.0,0,0,0.021614583333333333,0,86,0,1.0,0.7294117647058823,1.0,0.6987132352941177,0.7843878504935325,0.8042019605636597,0.7656323313713074,0.6649296508598228,1,0.6428488854595467,0.662742705769236,0.8351370502415472,0.6477291806503173,0.8351370502415472,0,1.2032086849212646,1.0,0.6270810610304126,-0.1840290178239372,1,1.0,0,934.0,0.005208475980907679,0.006663462612777948,0.05258537083864212,0.04592191055417061,0.009705654345452785,0.001975039951503277,0.01701068878173828,0.013965954072773457,5.6568498611450195,220.32518005371094
subject_06,window3,3,0,normal,0,Rest1,120.0,180.0,1.0,2163.734375,243.734375,0.0,0.0,0,0,0.021875,0,83,0,1.0,0.7073170731707317,1.0,0.7292301829268293,0.775482899906295,0.5857871472835541,1.2075401544570923,0.6581552892131318,1,0.8248717319864245,0.6257298988374467,0.7118420050762206,0.7565119344989661,0.8248717319864245,0,2.2086732387542725,1.0,0.6155716992401811,-0.24748736625131817,1,1.0,0,859.0,0.0039780642837285995,0.006530285347253084,0.04424597695469856,0.037715692073106766,0.009902136400341988,0.0016162581741809845,0.012858081609010696,0.010620756074786186,5.466752529144287,119.4841079711914
subject_06,window4,4,1,stress,1,Task1,180.0,240.0,1.0,2163.734375,243.734375,0.0,0.0,0,0,0.021614583333333333,0,87,0,1.0,0.5465116279069767,1.0,0.6907703488372093,0.7895709124597521,0.8451828956604004,2.6088953018188477,0.9030745179781136,1,0.7938506483169041,0.856312058858137,0.881249326656732,0.9391037954624835,0.9391037954624835,1,3.3730359077453613,1.0,0.5554759249007163,-0.2273580595978688,1,1.0,0,984.0,0.0064300536178052425,0.006913952529430389,0.044730883091688156,0.03781693056225777,0.009421692229807377,0.0025827684439718723,0.02255353145301342,0.01838935911655426,5.956528663635254,44.440032958984375
subject_06,window5,5,1,stress,1,Task1,240.0,300.0,1.0,2163.734375,243.734375,0.0,0.0,0,0,0.02265625,0,84,0,1.0,0.7349397590361446,1.0,0.7100903614457831,0.847113959440766,0.8117532134056091,1.5428425073623657,0.8806670140698281,1,0.6034496417238334,0.6861805909244773,0.6266339826156716,0.16452645544071587,0.6861805909244773,0,1.9918372631072998,1.0,0.6481100914466876,-0.1648012790775628,1,1.0,0,914.0,0.007172171957790852,0.007734094280749559,0.046598222106695175,0.0388641282916069,0.009944211691617966,0.0032884692773222923,0.02390657179057598,0.019204003736376762,6.03377103805542,34.95404052734375
subject_06,window6,6,1,stress,1,Task1,300.0,360.0,1.0,2163.734375,243.734375,0.0,0.0,0,0,0.02265625,0,79,0,1.0,0.5769230769230769,1.0,0.7552083333333334,0.8369639535189028,0.8433566093444824,1.4816030263900757,0.8613861386138614,1,0.8683947480491013,0.80657690497113,0.8682606763556187,0.10245771085167904,0.8683947480491013,0,1.9069336652755737,1.0,0.5818584168249016,-0.2068429362072306,1,1.0,0,942.0,0.0065223220735788345,0.0067830756306648254,0.041910335421562195,0.03512725979089737,0.008456164039671421,0.0033973511308431625,0.024751923978328705,0.020159590989351273,6.1229143142700195,26.734203338623047
subject_06,window7,7,1,stress,1,Task1,360.0,420.0,1.0,2163.734375,243.734375,0.0,0.0,0,0,0.022395833333333334,0,86,0,1.0,0.4823529411764706,1.0,0.6963235294117647,0.8008738367185656,0.7292647957801819,3.018152952194214,0.9671704012506513,1,0.7737002188710789,0.8547964028116635,0.8280517183859893,0.7462137988655068,0.8547964028116635,0,3.6761021614074707,1.0,0.533203327486158,-0.2727594595223719,1,1.0,0,948.0,0.007434442639350891,0.0068325200118124485,0.04183001443743706,0.03499749302864075,0.007713031955063343,0.0041176797822117805,0.02809731289744377,0.023181308060884476,6.290485382080078,14.714566230773926
subject_06,window8,8,1,stress,1,Task1,420.0,480.0,1.0,2163.734375,243.734375,0.0,0.0,0,0,0.02265625,0,91,0,1.0,0.6666666666666666,1.0,0.6574652777777777,0.784147495457697,0.8932301104068756,2.5989437103271484,0.9270453361125586,1,0.819349951269576,0.870509701929866,0.8641656471234545,0.15937291548569565,0.870509701929866,0,3.11745548248291,1.0,0.6019109153039758,-0.18065559853385693,1,1.0,0,975.0,0.007510474417358637,0.006799663417041302,0.04259657487273216,0.035796910524368286,0.007934295572340488,0.0036476515233516693,0.033414870500564575,0.027568645775318146,6.278307914733887,15.28162956237793
subject_06,window9,9,1,stress,1,Task1,480.0,540.0,1.0,2163.734375,243.734375,0.0,0.0,0,0,0.022135416666666668,0,81,0,0.9875,0.475,0.9875,0.7376953125,0.8091556450671785,0.7478169798851013,2.808302640914917,0.9494528400208442,1,0.4768530029630823,0.6727475212681222,0.7991437668736939,-0.7337761261289696,0.7991437668736939,0,3.5708327293395996,1.0,0.5302466935201536,-0.2707568437619301,1,1.0,0,914.0,0.0076214284636080265,0.007104747928678989,0.04306398332118988,0.035959236323833466,0.00821600016206503,0.003886096179485321,0.029855385422706604,0.023645000532269478,6.210495471954346,51.38021469116211
subject_06,window10,10,1,stress,1,Task1,540.0,600.0,1.0,2163.734375,243.734375,0.0,0.0,0,0,0.021875,0,82,0,1.0,0.6790123456790124,1.0,0.7316743827160493,0.8183019289045098,0.8275996446609497,2.821389675140381,0.9348619072433559,1,0.7490768176619454,0.7725911230791688,0.8133914673525074,-0.13731770711392566,0.8133914673525074,0,3.422053813934326,1.0,0.6170955169429578,-0.18482090290493147,1,1.0,0,947.0,0.006507596001029015,0.007123774383217096,0.04481331631541252,0.03768954053521156,0.008914140053093433,0.003433164209127426,0.02559281326830387,0.021018117666244507,6.065483093261719,48.27605056762695
subject_06,window11,11,1,stress,1,Task1,600.0,660.0,1.0,2163.734375,243.734375,0.0,0.0,0,0,0.021875,0,85,0,1.0,0.6666666666666666,1.0,0.7085193452380952,0.8112111753248525,0.8622308075428009,1.8269050121307373,0.8858780614903595,1,0.7313176174884433,0.7928211240314026,0.8576961084773489,-0.19734494331269478,0.8576961084773489,0,2.245889663696289,1.0,0.6100300192641225,-0.18163950428308673,1,1.0,0,1012.0,0.007433381397277117,0.0069648330099880695,0.04364117607474327,0.03667634353041649,0.007972012273967266,0.0037099006585776806,0.029783165082335472,0.023851655423641205,6.340565204620361,15.018324851989746
