subject,window,window_index,status,status_name,label_major,phase,t_start_sec,t_end_sec,major_ratio,subject_total_duration_sec,task4_duration_sec,bvp_missing_ratio,acc_missing_ratio,missing_flag,flatline_flag,clipping_ratio,clipping_flag,n_peaks,peak_sparse_flag,ibi_pass_ratio,valid_beat_ratio,ibi_plausibility,ibi_mean_sec,median_template_corr,notch_foot_peak_detectability,acc_diff_mean,acc_diff_exceed_ratio,acc_diff_flag,psd_corr_x,psd_corr_y,psd_corr_z,psd_corr_mag,psd_corr_max,psd_corr_flag,motion_score_raw,motion_score,SQI_stress_basic,SQI_stress_morph,hard_reject,motion_threshold_subject_p80,qc_relaxed_pass,TPV0,TPV1,TPV2,TPV3,TPV4,TPV5,TPV6,TPV7,TPV8,TPV9,TPV10,TPV11,TPV12,TPV13,TPV14,TPV15,TPV16,TPV17,TPV18,TPV19,TPV20,TPV21,TPV22,TPV23,TPV24,TPV25,TPV26,TPV27,TPV28,TPV29,TPV30,TPV31
subject_01,window1,1,0,normal,0,Rest1,0.0,60.0,1.0,2505.0,585.0,0.0,0.0,0,0,0.0375,0,9,0,0.875,0.5,0.875,7.0625,0.7230099450933263,0.84128338098526,0.7016353607177734,0.6951537258989057,1,0.8015447447905688,0.7405190468402403,0.7004959257679255,-0.3920370653984372,0.8015447447905688,0,1.0155315399169922,1.0,0.491902983527998,-0.2839266684803534,1,1.0,0,0.07679341733455658,0.06978831440210342,0.08625703305006027,0.07769329100847244,0.009463619440793991,0.0108474837616086,0.043393999338150024,0.0001262272708117962,0.005720095708966255,0.009826957248151302,1.688931941986084,1.964368224143982,0.32690680027008057,0.007309323642402887,0.05575576424598694,1.9050062894821167,3.314039945602417,0.3703007996082306,0.007667024154216051,0.06395699083805084,2.006316661834717,3.7973814010620117,44.0,0.043393999338150024,0.037749022245407104,343.74951171875,3.2407915592193604,1.620861530303955,0.010855679400265217,0.5605127811431885,0.00011766790703404695,0.009118031710386276
subject_01,window2,2,0,normal,0,Rest1,60.0,120.0,1.0,2505.0,585.0,0.0,0.0,0,0,0.029166666666666667,0,20,0,1.0,0.6842105263157895,1.0,2.8684210526315788,0.45194009369569127,0.812085747718811,0.832238495349884,0.7561229807191245,1,0.666622063068728,0.6917015343424361,0.6661541103618257,-0.3968233343443932,0.6917015343424361,0,1.5473744869232178,1.0,0.5092662386350232,-0.27873038175163756,1,1.0,0,0.18772853910923004,0.14235365390777588,0.20801763236522675,0.15252023935317993,0.020289093255996704,0.022878045216202736,0.09549489617347717,0.0002648383378982544,0.01362340897321701,0.024225089699029922,1.8276175260543823,2.9449570178985596,0.6410710215568542,0.028743021190166473,0.14070944488048553,1.4627366065979004,1.820107102394104,0.6765766143798828,0.035089243203401566,0.1590479165315628,1.2984232902526855,1.0785125494003296,47.0,0.09549489617347717,0.09401878714561462,360.564453125,3.330977439880371,1.8320472240447998,0.022805478423833847,0.5500555634498596,0.0005234049749560654,0.043947458267211914
subject_01,window3,3,0,normal,0,Rest1,120.0,180.0,1.0,2505.0,585.0,0.0,0.0,0,0,0.029166666666666667,0,12,0,0.7272727272727273,0.5454545454545454,0.7272727272727273,4.954545454545454,0.3722811755999955,0.8199878931045532,0.47045665979385376,0.5737363210005211,1,0.5104653533874504,0.24705038557398368,0.5526579974468011,-0.44752310366983744,0.5526579974468011,0,0.5603705644607544,0.5603705644607544,0.4192836598702869,0.04678761180629187,1,1.0,0,0.18010668456554413,0.11894344538450241,0.20647533237934113,0.12954431772232056,0.0263686403632164,0.03231542184948921,0.14659355580806732,3.7614256143569946e-05,0.015457604080438614,0.034121785312891006,2.1894075870513916,4.953255653381348,0.46031954884529114,0.05027564987540245,0.1293284147977829,0.9820218682289124,-0.31498605012893677,0.5087329149246216,0.05881595239043236,0.153818279504776,0.8238445520401001,-0.6088261604309082,38.0,0.14659355580806732,0.1285836100578308,3896.251220703125,3.0500104427337646,1.9640259742736816,0.0312359482049942,0.5767068266868591,0.0010442864149808884,0.0661044791340828
subject_01,window4,4,1,stress,1,Task1,180.0,240.0,1.0,2505.0,585.0,0.0,0.0,0,0,0.03333333333333333,0,24,0,1.0,0.782608695652174,1.0,2.2934782608695654,0.6487731885408612,0.7395767569541931,2.5729470252990723,0.9171443460135488,1,0.6511507723299791,0.6374290849857828,0.5823236058586962,-0.36201936770434234,0.6511507723299791,0,3.1777241230010986,1.0,0.607675434823128,-0.21812990493058426,1,1.0,0,0.22783297300338745,0.15350355207920074,0.2639494836330414,0.16735900938510895,0.036116503179073334,0.03877141326665878,0.15134352445602417,0.0006261169910430908,0.02208705246448517,0.04236689582467079,1.4556894302368164,1.22310471534729,0.8088288307189941,0.05987038463354111,0.1787237524986267,2.0301804542541504,4.301492691040039,0.9169349074363708,0.06746439635753632,0.2196279615163803,1.877934455871582,4.0473737716674805,55.0,0.15134352445602417,0.14478109776973724,241.7137908935547,3.5024681091308594,1.6467398405075073,0.040165744721889496,0.5459479093551636,0.0015032225055620074,0.15441933274269104
subject_01,window5,5,1,stress,1,Task1,240.0,300.0,1.0,2505.0,585.0,0.0,0.0,0,0,0.029166666666666667,0,21,0,1.0,0.8,1.0,2.75,0.4096295606852352,0.9949055910110474,1.8529787063598633,0.8832725377800938,1,0.5147117955890149,0.5571109784952996,0.5471744203413725,-0.35478708605626424,0.5571109784952996,0,2.288879871368408,1.0,0.5428888682055707,-0.20886621207592937,1,1.0,0,0.23587478697299957,0.255552738904953,0.27031612396240234,0.29133981466293335,0.034441348165273666,0.04628092423081398,0.25324881076812744,0.0005498304963111877,0.018495403230190277,0.03014294244349003,2.953366756439209,10.253043174743652,1.5412368774414062,0.05736606568098068,0.14737942814826965,3.618636131286621,14.69676685333252,1.7944856882095337,0.05791589617729187,0.16507753729820251,3.7685561180114746,16.17207908630371,40.0,0.25324881076812744,0.1288154125213623,460.5859680175781,3.078749895095825,0.9705191254615784,0.04084166884422302,0.5780933499336243,0.0021419241093099117,0.1331252157688141
subject_01,window6,6,1,stress,1,Task1,300.0,360.0,1.0,2505.0,585.0,0.0,0.0,0,0,0.0375,0,14,0,1.0,0.46153846153846156,1.0,3.8846153846153846,0.836809606077062,0.7182058990001678,0.9456955790519714,0.7561229807191245,1,0.2167074206322405,0.45403912044352773,0.4056356609150822,0.24462430013092754,0.45403912044352773,0,1.5505162477493286,1.0,0.5356582664385032,-0.27278458526915406,1,1.0,0,0.1661396324634552,0.11658667773008347,0.19871263206005096,0.15196110308170319,0.032572995871305466,0.041921503841876984,0.24066162109375,0.0004654228687286377,0.01806981861591339,0.03443697839975357,3.013218402862549,11.489880561828613,0.781762957572937,0.022299274802207947,0.13873988389968872,3.4219231605529785,15.107980728149414,1.022424578666687,0.030503392219543457,0.16072684526443481,3.7447426319122314,17.096765518188477,44.0,0.24066162109375,0.12138491868972778,517.070556640625,3.2009308338165283,1.3573521375656128,0.03795037791132927,0.5693039298057556,0.001757412450388074,0.12401014566421509
subject_01,window7,7,1,stress,1,Task1,360.0,420.0,1.0,2505.0,585.0,0.0,0.0,0,0,0.029166666666666667,0,18,0,1.0,0.7058823529411765,1.0,3.161764705882353,0.35360470217598483,0.5919967293739319,1.4812297821044922,0.8738926524231371,1,0.664669263704011,0.6614168969167065,0.646947439376162,-0.6673612984198216,0.664669263704011,0,1.9827995300292969,1.0,0.4884343518292661,-0.3518349362301678,1,1.0,0,0.2685284912586212,0.2594284117221832,0.3009280860424042,0.2722356915473938,0.03239959478378296,0.03520142659544945,0.1416015923023224,0.0008902996778488159,0.019608691334724426,0.018218666315078735,1.70993173122406,2.090653896331787,1.5650382041931152,0.029311785474419594,0.19005954265594482,3.258850336074829,12.043447494506836,1.6244667768478394,0.033596936613321304,0.2360037863254547,3.1065969467163086,10.818799018859863,45.0,0.1416015923023224,0.13322383165359497,159.04757690429688,3.326854705810547,1.2266576290130615,0.034866053611040115,0.5261061787605286,0.0012391404015943408,0.10299932956695557
subject_01,window8,8,1,stress,1,Task1,420.0,480.0,1.0,2505.0,585.0,0.0,0.0,0,0,0.025,0,19,0,1.0,0.6666666666666666,1.0,3.263888888888889,0.3998745443065267,0.7395720481872559,0.9545824527740479,0.8650338718082334,1,0.5981470310217496,0.6263244271371939,0.6110791473326599,-0.30253875533866476,0.6263244271371939,0,1.2362651824951172,1.0,0.4866290299586248,-0.31513835187655437,1,1.0,0,0.17392249405384064,0.22197270393371582,0.1968979388475418,0.23421527445316315,0.022975454106926918,0.023023778572678566,0.10207384824752808,0.0002349168062210083,0.016754217445850372,0.021252773702144623,1.6163917779922485,2.2599384784698486,1.1214215755462646,0.02655640058219433,0.10788544267416,3.2532308101654053,9.632037162780762,1.1898092031478882,0.02939477562904358,0.13182109594345093,3.1752285957336426,9.17145824432373,41.0,0.10207384824752808,0.08148054778575897,434.49212646484375,3.2849490642547607,0.9375662803649902,0.023787975311279297,0.5050559639930725,0.0005300944321788847,0.04337660223245621
subject_01,window9,9,1,stress,1,Task1,480.0,540.0,1.0,2505.0,585.0,0.0,0.0,0,0,0.03333333333333333,0,13,0,1.0,0.75,1.0,4.3125,0.6429693669318973,0.5998980402946472,0.7336149215698242,0.7159979155810318,1,0.6927426004127931,0.6532770047681092,0.6571641471017543,-0.6382094162953236,0.6927426004127931,0,1.0258615016937256,1.0,0.5928908100795692,-0.26428314819336385,1,1.0,0,0.1677548736333847,0.06765158474445343,0.19348707795143127,0.0773492306470871,0.025732209905982018,0.021367663517594337,0.1094965934753418,0.0013690590858459473,0.02070818468928337,0.024624552577733994,1.55476975440979,2.924506664276123,0.48704174160957336,0.09436029940843582,0.1492510735988617,2.1847329139709473,6.991827487945557,0.5451641082763672,0.10087255388498306,0.175639346241951,1.9600995779037476,5.703889846801758,56.0,0.1094965934753418,0.08361993730068207,79.97886657714844,3.7197177410125732,1.5610195398330688,0.022573811933398247,0.4307968318462372,0.0004565770213957876,0.06264851987361908
subject_01,window10,10,1,stress,1,Task1,540.0,600.0,1.0,2505.0,585.0,0.0,0.0,0,0,0.029166666666666667,0,20,0,1.0,0.6842105263157895,1.0,3.026315789473684,0.4205906119564201,0.6933822929859161,1.209604263305664,0.7649817613340282,1,0.515330480427318,0.5072845849161224,0.3038860119987842,-0.4873048686981935,0.515330480427318,0,1.7182961702346802,1.0,0.4998613941132418,-0.3162436158696791,1,1.0,0,0.20818057656288147,0.2811976373195648,0.24245965480804443,0.34168851375579834,0.034279078245162964,0.06538659334182739,0.45281410217285156,4.773586988449097e-05,0.016627054661512375,0.023737266659736633,5.286588668823242,30.669984817504883,2.0781028270721436,0.0567510686814785,0.1503731906414032,5.869150161743164,36.13570785522461,2.530916929244995,0.066119484603405,0.16354727745056152,5.994552135467529,37.2608642578125,50.0,0.45281410217285156,0.11291766166687012,9483.837890625,3.0980064868927,0.619920551776886,0.043328940868377686,0.6193626523017883,0.004275406710803509,0.27252310514450073
subject_01,window11,11,1,stress,1,Task1,600.0,660.0,1.0,2505.0,585.0,0.0,0.0,0,0,0.025,0,19,0,1.0,0.8333333333333334,1.0,3.125,0.6191607899181788,0.839832991361618,1.2980014085769653,0.8108389786347056,1,0.4154492342912319,0.7127744832425126,0.5858789943715693,-0.06415086223765622,0.7127744832425126,0,1.7751187086105347,1.0,0.619081570308787,-0.18525155468005083,1,1.0,0,0.18313243985176086,0.11744869500398636,0.2217082530260086,0.140516459941864,0.03857582435011864,0.04910147935152054,0.21222764253616333,0.0006271004676818848,0.018511265516281128,0.04328645393252373,2.083380937576294,4.1048197746276855,0.6207603812217712,0.037907954305410385,0.14482302963733673,1.2845333814620972,2.1894752979278564,0.6282680630683899,0.047432444989681244,0.1830073893070221,1.0672047138214111,0.6460761427879333,47.0,0.21222764253616333,0.20477744936943054,338.4214782714844,3.225133180618286,1.8033442497253418,0.04708120971918106,0.5972585678100586,0.002410955261439085,0.18325531482696533
subject_01,window12,12,1,stress,1,Task1,660.0,720.0,1.0,2505.0,585.0,0.0,0.0,0,0,0.03333333333333333,0,18,0,1.0,0.6470588235294118,1.0,3.1470588235294117,0.5039335120745366,0.5189866721630096,2.0647852420806885,0.9228764981761334,1,0.3154016437053583,0.4320144626355205,0.43024730460753824,-0.4777254220981031,0.4320144626355205,0,2.4373087882995605,1.0,0.5100035830341257,-0.3501523068817899,1,1.0,0,0.19943314790725708,0.1382705569267273,0.23379454016685486,0.15255029499530792,0.03436139598488808,0.04275289177894592,0.18943649530410767,0.0005346164107322693,0.01631467044353485,0.043254584074020386,1.9069457054138184,3.6498465538024902,0.6650477051734924,0.04672815650701523,0.1802998185157776,1.7558624744415283,3.0932376384735107,0.687343180179596,0.05095899850130081,0.20104610919952393,1.2404115200042725,1.1212077140808105,33.0,0.18943649530410767,0.13934873044490814,354.3343505859375,2.8647773265838623,1.7876214981079102,0.04258827865123749,0.6009320020675659,0.0018278098432347178,0.09928100556135178
subject_01,window13,13,1,stress,1,Task1,720.0,780.0,1.0,2505.0,585.0,0.0,0.0,0,0,0.029166666666666667,0,18,0,1.0,0.7647058823529411,1.0,3.2941176470588234,0.6904312037861019,0.6240898370742798,1.9042617082595825,0.9098488796248045,1,0.6272624424414319,0.74519214978158,0.5959894732247905,-0.6143758079344486,0.74519214978158,0,2.3751487731933594,1.0,0.6130117140770072,-0.24195797507902217,1,1.0,0,0.19495883584022522,0.15475983917713165,0.222441166639328,0.15870898962020874,0.027482330799102783,0.029353903606534004,0.15800420939922333,0.0005755871534347534,0.016353972256183624,0.02987968735396862,2.0773239135742188,5.891497611999512,1.0255417823791504,0.052139297127723694,0.14775285124778748,3.6200764179229736,15.40102481842041,1.061936378479004,0.059262387454509735,0.19255658984184265,3.374910831451416,14.250202178955078,48.0,0.15800420939922333,0.0750049352645874,274.5048522949219,3.398648500442505,1.2100811004638672,0.029449522495269775,0.5246278643608093,0.0008616516715846956,0.07761264592409134
subject_01,window14,14,0,normal,0,Rest2,780.0,840.0,1.0,2505.0,585.0,0.0,0.0,0,0,0.0375,0,19,0,1.0,0.6666666666666666,1.0,2.9166666666666665,0.49645590045434684,0.7984012365341187,1.9853274822235107,0.815528921313184,1,0.6216664741455276,0.7457567380683643,0.6118276493763835,-0.18696422845275834,0.7457567380683643,0,2.7495765686035156,1.0,0.5156034368029708,-0.27628571575288363,1,1.0,0,0.22752955555915833,0.37728068232536316,0.2738073766231537,0.438666433095932,0.04627782851457596,0.07462402433156967,0.3263453245162964,0.0014129653573036194,0.019673943519592285,0.039000723510980606,2.864262580871582,7.166517734527588,2.3023910522460938,0.037396907806396484,0.13249728083610535,4.498130798339844,20.758853912353516,2.6045517921447754,0.03979789838194847,0.1576186716556549,4.237408638000488,18.329837799072266,40.0,0.3263453245162964,0.30216073989868164,230.9632110595703,2.9188530445098877,0.5432925224304199,0.05934327840805054,0.6251340508460999,0.005568745080381632,0.3084152936935425
subject_01,window15,15,0,normal,0,Rest2,840.0,900.0,1.0,2505.0,585.0,0.0,0.0,0,0,0.0375,0,12,0,1.0,0.6363636363636364,1.0,4.363636363636363,0.8079223475420669,0.612538069486618,1.0007511377334595,0.6717040125065138,1,0.6289403983940018,0.5656666766452567,0.6735527021087164,-0.5559185360715573,0.6735527021087164,0,1.5660583972930908,1.0,0.5969221588080748,-0.25397580483373794,1,1.0,0,0.18088051676750183,0.1872844099998474,0.20415359735488892,0.22060489654541016,0.023273080587387085,0.042638204991817474,0.2063063383102417,0.0009097708389163017,0.008211212232708931,0.01546623557806015,3.352989912033081,11.301721572875977,0.7106935977935791,0.012901976704597473,0.08442512899637222,1.5134398937225342,1.5900416374206543,0.8599898219108582,0.013811747543513775,0.09163248538970947,1.6791256666183472,2.1944661140441895,24.0,0.2063063383102417,0.07732382416725159,226.76487731933594,2.250960350036621,1.4658585786819458,0.033188506960868835,0.6833141446113586,0.0018180166371166706,0.0566316694021225
subject_01,window16,16,1,stress,1,Task2,900.0,960.0,1.0,2505.0,585.0,0.0,0.0,0,0,0.029166666666666667,0,17,0,1.0,0.5,1.0,3.265625,0.22223060632642588,0.5441837310791016,1.5126912593841553,0.7764460656591975,1,0.6681417626422711,0.7223339404325443,0.664063807071169,-0.2903338235900512,0.7223339404325443,0,2.024385929107666,1.0,0.36666918189792774,-0.4583964156486181,1,1.0,0,0.17646661400794983,0.12090285122394562,0.21007132530212402,0.1475936770439148,0.03360472247004509,0.043930139392614365,0.2515800893306732,2.2426247596740723e-05,0.01785115897655487,0.0385650172829628,2.8058507442474365,10.293522834777832,0.5054954290390015,0.014256391674280167,0.13714730739593506,0.966689944267273,0.006778081879019737,0.5932939052581787,0.015290100127458572,0.15553343296051025,0.9695287346839905,-0.11994215101003647,48.0,0.2515800893306732,0.10641959309577942,11213.109375,3.245424270629883,2.003443479537964,0.04055647924542427,0.5908626317977905,0.0019298571860417724,0.1468384563922882
subject_01,window17,17,1,stress,1,Task2,960.0,1020.0,1.0,2505.0,585.0,0.0,0.0,0,0,0.0375,0,15,0,1.0,0.8571428571428571,1.0,4.017857142857143,0.10752815513443459,0.6999925374984741,1.0845997333526611,0.8092756644085461,1,0.4386106591468233,0.49178815842231344,0.4827898213886532,0.048093172399802396,0.49178815842231344,0,1.5699492692947388,1.0,0.47511558939747334,-0.3409769696989158,1,1.0,0,0.1429777890443802,0.10759198665618896,0.1686285138130188,0.12888571619987488,0.025650719180703163,0.029325038194656372,0.1324175000190735,6.138905882835388e-05,0.018073096871376038,0.02224748767912388,2.1541101932525635,4.571714878082275,0.6092633605003357,0.030175305902957916,0.11862912029027939,2.3953161239624023,7.265810012817383,0.6763659119606018,0.03140372782945633,0.13631601631641388,2.204474449157715,5.722788333892822,43.0,0.1324175000190735,0.12286019325256348,2156.669921875,3.2576940059661865,1.5143901109695435,0.028098508715629578,0.5349763631820679,0.0008599578286521137,0.06527043879032135
subject_01,window18,18,1,stress,1,Task2,1020.0,1080.0,1.0,2505.0,585.0,0.0,0.0,0,0,0.03333333333333333,0,14,0,1.0,0.6923076923076923,1.0,3.9615384615384617,0.29951527108217646,0.8713002800941467,1.8355052471160889,0.9359041167274622,1,0.49435569490079095,0.43384223607136535,0.44601239455660296,-0.37246098216180656,0.49435569490079095,0,2.283214807510376,1.0,0.46677765824773,-0.29960380451361157,1,1.0,0,0.14124687016010284,0.0629081204533577,0.15866687893867493,0.07352626323699951,0.01742001809179783,0.018529314547777176,0.07335229218006134,0.00033889710903167725,0.008512720465660095,0.021037906408309937,1.5015151500701904,1.6569693088531494,0.29879307746887207,0.047370653599500656,0.13459371030330658,0.7316728830337524,-0.1263168901205063,0.3514578342437744,0.04859895259141922,0.1456831395626068,0.8372237682342529,0.20757260918617249,39.0,0.07335229218006134,0.07063707709312439,216.437744140625,3.164592981338501,2.1214308738708496,0.019358210265636444,0.5413842797279358,0.0003433354722801596,0.02522490732371807
subject_01,window19,19,1,stress,1,Task2,1080.0,1140.0,1.0,2505.0,585.0,0.0,0.0,0,0,0.025,0,18,0,1.0,0.7058823529411765,1.0,3.4411764705882355,0.7062784523922757,0.8879849016666412,2.2752432823181152,0.9140177175612298,1,0.5847273131928032,0.5678505186209071,0.4964814811824874,-0.36110548389324615,0.5847273131928032,0,2.8897438049316406,1.0,0.5942364768941534,-0.1896694556029178,1,1.0,0,0.20779430866241455,0.15559127926826477,0.2439301460981369,0.17222851514816284,0.036135829985141754,0.043888483196496964,0.23592063784599304,0.00024025235325098038,0.018130749464035034,0.03936915472149849,2.622396230697632,8.127105712890625,1.0361998081207275,0.009785769507288933,0.17740441858768463,3.5600485801696777,16.13446044921875,1.1177334785461426,0.010026021860539913,0.21420378983020782,3.089660406112671,12.947416305541992,43.0,0.23592063784599304,0.13915103673934937,981.9292602539062,3.2384588718414307,1.3197431564331055,0.040232811123132706,0.5437423586845398,0.0019261989509686828,0.13897587358951569
subject_01,window20,20,1,stress,1,Task2,1140.0,1200.0,1.0,2505.0,585.0,0.0,0.0,0,0,0.025,0,18,0,1.0,0.8235294117647058,1.0,3.338235294117647,0.3428310548526634,0.8488894999027252,2.7206287384033203,0.9166232412714955,1,0.647918893828236,0.7010404027574856,0.7074881014219339,-0.3693280408301195,0.7074881014219339,0,3.3053674697875977,1.0,0.5322610811616814,-0.25501103778174117,1,1.0,0,0.2087402641773224,0.11653058230876923,0.24106325209140778,0.13069650530815125,0.03232299163937569,0.03076624870300293,0.11057126522064209,0.000594019889831543,0.023989491164684296,0.03884878754615784,1.0853279829025269,0.2141016274690628,0.636202335357666,0.0796855017542839,0.17683547735214233,1.7566722631454468,3.2266845703125,0.6938698887825012,0.08191041648387909,0.2041902244091034,1.4605305194854736,2.1520276069641113,46.0,0.11057126522064209,0.10827811062335968,186.13754272460938,3.389193534851074,1.7392542362213135,0.03368855640292168,0.5097950100898743,0.0009465620387345552,0.09160153567790985
subject_01,window21,21,0,normal,0,Rest3,1200.0,1260.0,1.0,2505.0,585.0,0.0,0.0,0,0,0.05,0,12,0,0.9090909090909091,0.8181818181818182,0.9090909090909091,5.0227272727272725,0.7503882604333386,0.6756247282028198,0.9320985674858093,0.7316310578426264,1,0.6913361530009896,0.6400146729240856,0.5767652492893697,0.03432756379370451,0.6913361530009896,0,1.3396345376968384,1.0,0.6342073872209107,-0.21622402556823306,1,1.0,0,0.19219155609607697,0.11067245155572891,0.2265547811985016,0.1318960189819336,0.03436323627829552,0.038738153874874115,0.1367759108543396,0.000506177544593811,0.019724763929843903,0.03562925010919571,1.3884170055389404,0.7306262850761414,0.6875498294830322,0.049537982791662216,0.18296486139297485,2.299891471862793,8.199782371520996,0.7807613015174866,0.06157749146223068,0.2096584439277649,1.9046554565429688,5.887537479400635,38.0,0.1367759108543396,0.12333343923091888,270.2079772949219,3.081130027770996,1.5471389293670654,0.04015541821718216,0.5689030289649963,0.00150064448826015,0.10189610719680786
subject_01,window22,22,0,normal,0,Rest3,1260.0,1320.0,1.0,2505.0,585.0,0.0,0.0,0,0,0.025,0,9,0,0.75,0.5,0.75,6.6875,0.39663630000550093,0.6590391993522644,0.902377188205719,0.7123501823866597,1,0.5635475975291654,0.47153911955975875,0.47523940341988724,-0.20319266491989957,0.5635475975291654,0,1.3674142360687256,1.0,0.3689908900016503,-0.43608112516055864,1,1.0,0,0.14598150551319122,0.17605610191822052,0.1677001267671585,0.20848488807678223,0.021718623116612434,0.03672836348414421,0.1744808554649353,0.00012102164328098297,0.009106054902076721,0.016664208844304085,2.829124689102173,7.71342134475708,0.9945561289787292,0.011966155841946602,0.09611531347036362,3.3716049194335938,12.609457969665527,1.1690369844436646,0.013887818902730942,0.10631215572357178,3.341869831085205,12.377755165100098,36.0,0.1744808554649353,0.12971854209899902,1441.613525390625,2.709825277328491,1.1666903495788574,0.03009619191288948,0.6736197471618652,0.001348972669802606,0.06554416567087173
subject_01,window23,23,1,stress,1,Task3,1320.0,1380.0,1.0,2505.0,585.0,0.0,0.0,0,0,0.029166666666666667,0,10,0,0.8888888888888888,0.6666666666666666,0.8888888888888888,5.194444444444445,0.9589306383546169,0.5667676329612732,0.9230765104293823,0.7008858780614904,1,0.6110086963460547,0.6192605473724011,0.5639198006887594,-0.34888931194059375,0.6192605473724011,0,1.2211546897888184,1.0,0.6321236359508295,-0.24079765439324974,1,1.0,0,0.18870331346988678,0.11911381036043167,0.22118277847766876,0.14943109452724457,0.03247946873307228,0.044966135174036026,0.19145438075065613,0.0004024989902973175,0.013675183057785034,0.02243841253221035,2.0045156478881836,3.337411880493164,0.43172451853752136,0.029187513515353203,0.18577896058559418,0.3633469343185425,-1.0248174667358398,0.58675616979599,0.02959001250565052,0.2127220332622528,0.577502965927124,-0.6329314112663269,39.0,0.19145438075065613,0.15796875953674316,475.6524353027344,2.9523658752441406,2.1681594848632812,0.04192256182432175,0.6288222074508667,0.0020219534635543823,0.11999790370464325
subject_01,window24,24,1,stress,1,Task3,1380.0,1440.0,1.0,2505.0,585.0,0.0,0.0,0,0,0.03333333333333333,0,14,0,1.0,0.7692307692307693,1.0,4.230769230769231,0.5677803212910433,0.7120692133903503,1.7286524772644043,0.8457529963522668,1,0.5930724201573774,0.744529760950238,0.6836673990202164,-0.24691885161499252,0.744529760950238,0,2.4021387100219727,1.0,0.5780264040796207,-0.24926838556042075,1,1.0,0,0.16141410171985626,0.11615249514579773,0.18763810396194458,0.13506808876991272,0.026223991066217422,0.02779444307088852,0.11644968390464783,0.0013822615146636963,0.01647789776325226,0.027044709771871567,1.6299424171447754,1.9321222305297852,0.5000354647636414,0.03373151645064354,0.12219586968421936,1.2319693565368652,0.8818167448043823,0.5636127591133118,0.04684937372803688,0.1320011168718338,1.2369179725646973,0.6341646313667297,39.0,0.11644968390464783,0.09432679414749146,84.24516296386719,3.200084924697876,1.8503265380859375,0.028271043673157692,0.5252088308334351,0.0007725310861133039,0.05694892257452011
subject_01,window25,25,1,stress,1,Task3,1440.0,1500.0,1.0,2505.0,585.0,0.0,0.0,0,0,0.03333333333333333,0,17,0,1.0,0.75,1.0,3.265625,0.4824010741877522,0.7963244915008545,2.4736549854278564,0.890568004168838,1,0.7422533789953429,0.6399700920136207,0.6854196248569259,-0.307415804933175,0.7422533789953429,0,3.030449390411377,1.0,0.5447203222563257,-0.25531860857784827,1,1.0,0,0.17431259155273438,0.08007826656103134,0.20277772843837738,0.09525029361248016,0.028465133160352707,0.029109954833984375,0.11436828970909119,0.0009738430380821228,0.01946432888507843,0.021928779780864716,1.5587202310562134,1.576042652130127,0.39626750349998474,0.07228211313486099,0.16293568909168243,0.9677330255508423,0.20548482239246368,0.5106357932090759,0.08332473039627075,0.18094515800476074,1.269740343093872,1.5388120412826538,35.0,0.11436828970909119,0.10514706373214722,117.43896484375,3.1079931259155273,1.8987512588500977,0.029941095039248466,0.5108993053436279,0.000847389514092356,0.05801786854863167
subject_01,window26,26,0,normal,0,Rest4,1500.0,1560.0,1.0,2505.0,585.0,0.0,0.0,0,0,0.029166666666666667,0,16,0,1.0,0.8,1.0,3.3,0.617489973975303,0.8526539206504822,1.7995651960372925,0.8332464825429912,1,0.6235520092593152,0.7563803102843919,0.7004610641331304,-0.30315548137257,0.7563803102843919,0,2.450174331665039,1.0,0.605246992192591,-0.19246402634355375,1,1.0,0,0.22184094786643982,0.17435505986213684,0.2545304596424103,0.19874465465545654,0.03268951177597046,0.03747083619236946,0.1501067876815796,0.001247800886631012,0.015528574585914612,0.03600721061229706,1.764184594154358,2.37206768989563,0.8093196749687195,0.037119824439287186,0.17243315279483795,1.6338547468185425,2.283118486404419,0.9594264626502991,0.038635119795799255,0.19721513986587524,1.7148865461349487,2.9055604934692383,38.0,0.1501067876815796,0.13897806406021118,120.29610443115234,3.1104869842529297,1.804330587387085,0.03725619986653328,0.5548534393310547,0.001404063543304801,0.09396137297153473
subject_01,window27,27,0,normal,0,Rest4,1560.0,1620.0,1.0,2505.0,585.0,0.0,0.0,0,0,0.029166666666666667,0,11,0,1.0,0.6,1.0,5.7,0.8951820867486906,0.6934444010257721,0.8121606707572937,0.6357477853048463,1,0.5788939933460302,0.6591115335201484,0.5200209916269316,-0.5732752277308841,0.6591115335201484,0,1.2159188985824585,1.0,0.6085546260246072,-0.22284337805638432,1,1.0,0,0.17172205448150635,0.17844583094120026,0.196491077542305,0.19251194596290588,0.024769023060798645,0.031107494607567787,0.14855700731277466,0.0006498433649539948,0.015592485666275024,0.026533665135502815,2.540790319442749,6.714096546173096,0.9579319953918457,0.029253002256155014,0.11754573881626129,2.5955731868743896,7.747684001922607,1.001762866973877,0.0332673005759716,0.140625,2.3175392150878906,6.068652629852295,39.0,0.14855700731277466,0.1272357851266861,228.60081481933594,3.0938308238983154,1.3591521978378296,0.028612062335014343,0.5627678632736206,0.0009676762274466455,0.06166604906320572
subject_01,window28,28,1,stress,1,Task4,1620.0,1680.0,1.0,2505.0,585.0,0.0,0.0,0,0,0.029166666666666667,0,10,0,0.7777777777777778,0.6666666666666666,0.7777777777777778,5.527777777777778,0.8440430313125985,0.5001192092895508,0.6090405583381653,0.6352266805627931,1,0.6593743506385459,0.5710707010019046,0.5598659192016797,0.6885915185367776,0.6885915185367776,0,1.154618740081787,1.0,0.5754351316160018,-0.3084038842939072,1,1.0,0,0.14781948924064636,0.09038669615983963,0.1714055985212326,0.10303191840648651,0.023586099967360497,0.024505358189344406,0.10271495580673218,0.000551857054233551,0.017136573791503906,0.02511950209736824,1.764644980430603,3.0539379119873047,0.4093579947948456,0.02152661792933941,0.12785950303077698,0.8070749640464783,0.16458269953727722,0.44057852029800415,0.023162074387073517,0.1511525958776474,0.6315346956253052,-0.5402512550354004,39.0,0.10271495580673218,0.10250897705554962,186.12265014648438,3.2007694244384766,1.9988576173782349,0.025102097541093826,0.5184929966926575,0.0006005125469528139,0.04511585086584091
subject_01,window29,29,1,stress,1,Task4,1680.0,1740.0,1.0,2505.0,585.0,0.0,0.0,0,0,0.03333333333333333,0,15,0,1.0,0.8571428571428571,1.0,4.107142857142857,0.8796386605748412,0.7154591381549835,0.723487138748169,0.6810838978634706,1,0.5314075749532311,0.6041551989126756,0.6898577014000751,-0.3162383700358372,0.6898577014000751,0,0.9980948567390442,0.9980948567390442,0.7069392553556908,-0.14217754991373088,1,1.0,0,0.19976480305194855,0.1577388048171997,0.22877129912376404,0.16463236510753632,0.02900649793446064,0.032111965119838715,0.12513843178749084,0.0009846016764640808,0.019522786140441895,0.026623666286468506,1.6745612621307373,1.9630709886550903,1.0253591537475586,0.03832133486866951,0.17226143181324005,3.658313512802124,15.877791404724121,1.066719651222229,0.04081320762634277,0.1950206607580185,3.305398941040039,13.886725425720215,41.0,0.12513843178749084,0.11756442487239838,127.09420013427734,3.2049334049224854,1.2578325271606445,0.03237805515527725,0.5445046424865723,0.0010311782825738192,0.07677476108074188
subject_01,window30,30,1,stress,1,Task4,1740.0,1800.0,1.0,2505.0,585.0,0.0,0.0,0,0,0.025,0,14,0,0.8461538461538461,0.7692307692307693,0.8461538461538461,3.9423076923076925,0.485460050195052,0.8910543620586395,1.2337472438812256,0.7978113600833767,1,0.6239743449264122,0.6361998538280312,0.623686500182491,0.13502842228202444,0.6361998538280312,0,1.7358037233352661,1.0,0.5225610919815925,-0.2558713969365771,1,1.0,0,0.1549733281135559,0.07259679585695267,0.18018165230751038,0.08684711903333664,0.025208329781889915,0.032859545201063156,0.16653598845005035,0.0003086850047111511,0.01436392217874527,0.017508206889033318,2.753950834274292,7.918044090270996,0.3938696086406708,0.05519796535372734,0.14772750437259674,0.8879355192184448,1.0569144487380981,0.4170510768890381,0.05597894638776779,0.16375018656253815,0.7717604041099548,0.07857583463191986,38.0,0.16653598845005035,0.11620700359344482,539.48388671875,3.0665738582611084,1.9063622951507568,0.028825445100665092,0.5566985011100769,0.001079749665223062,0.06517796218395233
subject_01,window31,31,1,stress,1,Task4,1800.0,1860.0,1.0,2505.0,585.0,0.0,0.0,0,0,0.029166666666666667,0,11,0,0.9,0.8,0.9,5.375,0.9441324590784825,0.598263144493103,0.9653701186180115,0.7571651902032308,1,0.6958644152390787,0.6195750063563404,0.6496028449633247,-0.3021911115541935,0.6958644152390787,0,1.4425995349884033,1.0,0.6832397377235448,-0.19440109910710357,1,1.0,0,0.16865724325180054,0.08141510933637619,0.19235287606716156,0.09513598680496216,0.023695632815361023,0.026621991768479347,0.1267622709274292,0.00017420947551727295,0.01585548371076584,0.017645247280597687,2.382854700088501,5.896137714385986,0.37441328167915344,0.03490281477570534,0.16759860515594482,0.50235515832901,-0.01942843571305275,0.48488208651542664,0.05066196247935295,0.1782435029745102,0.7558590173721313,0.5986263751983643,39.0,0.1267622709274292,0.1104688048362732,727.6010131835938,3.195483922958374,2.0345263481140137,0.024930458515882492,0.5125673413276672,0.0007087304256856441,0.049538321793079376
subject_01,window32,32,1,stress,1,Task4,1860.0,1920.0,1.0,2505.0,585.0,0.0,0.0,0,0,0.029166666666666667,0,16,0,1.0,0.6,1.0,3.75,0.5030447915359155,0.9025157690048218,1.3886117935180664,0.8441896821261073,1,0.6252906130216499,0.5491361446267613,0.6584774711208293,-0.5804856621227535,0.6584774711208293,0,2.0253353118896484,1.0,0.49091343746077476,-0.26860985986481567,1,1.0,0,0.16764792799949646,0.08284832537174225,0.19283384084701538,0.0972457006573677,0.02518591657280922,0.027038248255848885,0.09666819870471954,0.00044649839401245117,0.014832250773906708,0.03504225239157677,1.2557357549667358,0.6882266998291016,0.37137192487716675,0.04686634987592697,0.15123607218265533,0.5449913740158081,-0.39296337962150574,0.4508938193321228,0.04993855953216553,0.179999440908432,0.5618131756782532,-0.3040081858634949,40.0,0.09666819870471954,0.09472090005874634,216.49806213378906,3.155024766921997,2.124434471130371,0.0289045050740242,0.5594772100448608,0.0007310669170692563,0.05461588874459267
subject_01,window33,33,1,stress,1,Task4,1920.0,1980.0,1.0,2505.0,585.0,0.0,0.0,0,0,0.025,0,16,0,0.9333333333333333,0.7333333333333333,0.9333333333333333,3.8,0.860126836494306,0.5987023413181305,1.4798113107681274,0.8144867118290776,1,0.6630122555607364,0.6524366608447432,0.6805444095773192,-0.6184704473258982,0.6805444095773192,0,1.9888383150100708,1.0,0.6380380509482918,-0.22862603888022426,1,1.0,0,0.22878959774971008,0.21226881444454193,0.27163657546043396,0.2648079991340637,0.04284697771072388,0.06422834098339081,0.37234997749328613,0.0005808398127555847,0.017140358686447144,0.046092819422483444,3.421173334121704,13.823699951171875,1.3119138479232788,0.0448114275932312,0.15916623175144196,3.2731451988220215,13.271027565002441,1.684263825416565,0.05012475699186325,0.1909981220960617,3.6469578742980957,16.17850685119629,43.0,0.37234997749328613,0.17942440509796143,641.04345703125,3.058638334274292,1.2847990989685059,0.05387783423066139,0.6141023635864258,0.00412527984008193,0.25632917881011963
subject_01,window34,34,1,stress,1,Task4,1980.0,2040.0,1.0,2505.0,585.0,0.0,0.0,0,0,0.03333333333333333,0,14,0,1.0,0.5384615384615384,1.0,4.288461538461538,0.7308549863972694,0.6326039433479309,1.4027087688446045,0.829077644606566,1,0.591656590453231,0.49100206344611036,0.5693803122133153,0.5767911484866998,0.591656590453231,0,2.1909306049346924,1.0,0.5346411113037962,-0.2975968060252383,1,1.0,0,0.1802133023738861,0.12399320304393768,0.20597048103809357,0.14810392260551453,0.02575717493891716,0.03157145529985428,0.12482404708862305,0.00023570656776428223,0.01166023313999176,0.030348509550094604,1.458204746246338,1.1637673377990723,0.6269462704658508,0.05025710538029671,0.13878674805164337,1.8851995468139648,3.8606038093566895,0.7517703175544739,0.050639647990465164,0.15987862646579742,1.9328179359436035,4.084837436676025,37.0,0.12482404708862305,0.09105809032917023,529.5514526367188,2.9634480476379395,1.630961298942566,0.03229232877492905,0.6099186539649963,0.0009967568330466747,0.06142698600888252
subject_01,window35,35,1,stress,1,Task4,2040.0,2100.0,1.0,2505.0,585.0,0.0,0.0,0,0,0.025,0,10,0,1.0,0.7777777777777778,1.0,6.0,0.9210792168711378,0.8947237730026245,0.8680959343910217,0.7946847316310578,1,0.7073884854495897,0.6815934173799925,0.6612639932237394,-0.41039575956812174,0.7073884854495897,0,1.0795087814331055,1.0,0.6874348761724524,-0.1127159191982261,1,1.0,0,0.1748611330986023,0.09207256883382797,0.1998368203639984,0.10141482204198837,0.024975677952170372,0.02100730687379837,0.07036368548870087,9.110569953918457e-05,0.018826059997081757,0.028464682400226593,0.7383434176445007,-0.6310392618179321,0.48576924204826355,0.05062990263104439,0.1588362753391266,1.4585742950439453,2.4127137660980225,0.5095452070236206,0.05651473626494408,0.16275571286678314,1.3088610172271729,1.6394017934799194,37.0,0.07036368548870087,0.06506632268428802,772.2454833984375,3.244804859161377,1.8635683059692383,0.023939354345202446,0.4663005471229553,0.0004413069400470704,0.03940838202834129
subject_01,window36,36,1,stress,1,Task4,2100.0,2160.0,1.0,2505.0,585.0,0.0,0.0,0,0,0.029166666666666667,0,12,0,0.9090909090909091,0.7272727272727273,0.9090909090909091,4.795454545454546,0.9218376079598372,0.6326199173927307,0.8963576555252075,0.7290255341323606,1,0.6185827176766183,0.6801941530735516,0.6938183932586701,-0.49915974953253317,0.6938183932586701,0,1.1789964437484741,1.0,0.6492785551152239,-0.21138561866185812,1,1.0,0,0.21027061343193054,0.19784404337406158,0.23794928193092346,0.2267877161502838,0.02767866477370262,0.04504142329096794,0.2683456540107727,0.00047535449266433716,0.014818431809544563,0.018075935542583466,4.481174945831299,21.032560348510742,0.886853039264679,0.04842938110232353,0.16643331944942474,2.395318031311035,5.246742248535156,1.1386628150939941,0.05065101012587547,0.19079676270484924,2.6260392665863037,6.851644515991211,34.0,0.2683456540107727,0.07300305366516113,564.5050659179688,2.874197006225586,1.412888765335083,0.0317554734647274,0.5567734241485596,0.0020287297666072845,0.09502449631690979
subject_01,window37,37,0,normal,0,Rest5,2205.0,2265.0,1.0,2505.0,585.0,0.0,0.0,0,0,0.0375,0,14,0,0.9230769230769231,0.5384615384615384,0.9230769230769231,4.423076923076923,0.4647041038703724,0.803543210029602,0.41831374168395996,0.5330901511203752,1,0.8782948432433647,0.6775023430751721,0.7435088918202662,-0.39409127264109806,0.8782948432433647,0,0.5641876459121704,0.5641876459121704,0.48299246656989475,0.09902802871666938,1,1.0,0,0.1307034194469452,0.15853239595890045,0.14900395274162292,0.1811063438653946,0.018300525844097137,0.02771136537194252,0.13822892308235168,0.00014360249042510986,0.00859084166586399,0.017335373908281326,2.822512626647949,7.940947532653809,0.7884781956672668,0.01509660854935646,0.06797058880329132,2.602529287338257,6.702779769897461,0.8815968036651611,0.017915498465299606,0.08006295561790466,2.5685558319091797,6.311095237731934,44.0,0.13822892308235168,0.09920388460159302,962.5132446289062,3.0479896068573,1.2834917306900024,0.023507628589868546,0.6276695132255554,0.0007679198170080781,0.04852447658777237
subject_01,window38,38,0,normal,0,Rest5,2265.0,2325.0,1.0,2505.0,585.0,0.0,0.0,0,0,0.025,0,11,0,0.9,0.6,0.9,5.65,0.5469610876380099,0.7331759631633759,0.8682456612586975,0.706618030224075,1,0.8266749579781328,0.7157056276175172,0.8132565220492903,-0.4213242399450358,0.8266749579781328,0,1.3698689937591553,1.0,0.48408832629140297,-0.3199657372996535,1,1.0,0,0.2178536355495453,0.6043765544891357,0.25645583868026733,0.7275589108467102,0.038602206856012344,0.12487654387950897,0.7519619464874268,9.349733591079712e-05,0.007644303143024445,0.02356579899787903,5.3242011070251465,27.437881469726562,3.6930224895477295,0.017089713364839554,0.07298608124256134,5.419225215911865,28.236814498901367,4.444984436035156,0.02055073156952858,0.07548646628856659,5.438640594482422,28.387760162353516,35.0,0.7519619464874268,0.1295907199382782,8041.74267578125,1.9315379858016968,0.25864094495773315,0.06345432251691818,0.798417329788208,0.015594151802361012,0.5979498624801636
subject_01,window39,39,1,stress,1,Task5,2325.0,2385.0,1.0,2505.0,585.0,0.0,0.0,0,0,0.025,0,12,0,1.0,0.7272727272727273,1.0,4.590909090909091,0.9181167383800728,0.6226277947425842,0.7180535793304443,0.7587285044293903,1,0.6218930967985428,0.6232941135933917,0.5816616896222382,0.4809928430672165,0.6232941135933917,0,1.0965033769607544,1.0,0.6663441124231128,-0.19663204853751748,1,1.0,0,0.16214223206043243,0.12837426364421844,0.18931281566619873,0.14217978715896606,0.027170589193701744,0.024309149011969566,0.08281293511390686,0.000499725341796875,0.019506119191646576,0.036874160170555115,0.8277547359466553,-0.483738511800766,0.6417867541313171,0.012266824021935463,0.14525282382965088,2.307034492492676,5.922179222106934,0.6954590678215027,0.013071071356534958,0.1678205281496048,2.0287182331085205,4.779422283172607,39.0,0.08281293511390686,0.07959632575511932,165.71359252929688,3.2559573650360107,1.5621782541275024,0.027416884899139404,0.49159565567970276,0.0005909347673878074,0.051837850362062454
subject_01,window40,40,0,normal,0,Rest6,2385.0,2445.0,1.0,2505.0,585.0,0.0,0.0,0,0,0.03333333333333333,0,8,0,0.7142857142857143,0.2857142857142857,0.7142857142857143,7.285714285714286,0.7532928197208668,0.6219131946563721,0.2874959707260132,0.504950495049505,1,0.2642112130519459,-0.5294523713498848,0.6936687263775637,0.22577431829557573,0.6936687263775637,0,0.3152947723865509,0.3152947723865509,0.45160122582046214,0.25707815977918735,1,1.0,0,0.1181207075715065,0.19703778624534607,0.13633915781974792,0.2349221110343933,0.018218446522951126,0.05004800856113434,0.3034593462944031,0.0001585017889738083,0.00485621765255928,0.0074267275631427765,5.033391952514648,25.57628631591797,0.8653803467750549,0.006670443806797266,0.029431281611323357,2.6479902267456055,6.176279067993164,1.043060302734375,0.007491271942853928,0.033896900713443756,2.7859983444213867,6.942668437957764,37.0,0.3034593462944031,0.07602816820144653,1914.4276123046875,2.228729486465454,1.0678566694259644,0.02881360799074173,0.7694087028503418,0.002504803240299225,0.10495845228433609
subject_01,window41,41,0,normal,0,Rest6,2445.0,2505.0,1.0,2505.0,585.0,0.0,0.0,0,0,0.03333333333333333,0,13,0,1.0,0.5833333333333334,1.0,4.520833333333333,0.8156032339923505,0.4628067910671234,0.5559831857681274,0.6899426784783742,1,0.7693072473982475,0.16727924384440493,0.7161644893647306,-0.01761687041449682,0.7693072473982475,0,0.5312888622283936,0.5312888622283936,0.624885417308199,0.16331364403647486,1,1.0,0,0.17079192399978638,0.4809684753417969,0.20142270624637604,0.5717729926109314,0.030630789697170258,0.09339293837547302,0.5843448638916016,0.00039323046803474426,0.010082202032208443,0.015008114278316498,5.486842155456543,29.53293800354004,2.9353299140930176,0.021946335211396217,0.054656192660331726,5.09705924987793,25.90243911743164,3.519674777984619,0.023880919441580772,0.06720562279224396,5.207837104797363,26.95855140686035,38.0,0.5843448638916016,0.10721884667873383,1485.973388671875,2.178471565246582,0.3629234731197357,0.04787684231996536,0.7609488368034363,0.00872224010527134,0.36709845066070557
subject_02,window1,1,0,normal,0,Rest1,0.0,60.0,1.0,2355.0,435.0,0.0,0.0,0,0,0.03333333333333333,0,8,0,0.7142857142857143,0.5714285714285714,0.7142857142857143,7.821428571428571,0.5783089811669967,0.7466065883636475,1480729.5,0.6644085461177697,1,0.39266337014567915,0.39249977988979595,0.39249729656455046,0.3922987829049179,0.39266337014567915,0,32424246.0,1.0,0.4449212657786705,-0.35448539333162465,1,1.0,0,0.03983572870492935,0.03051188960671425,0.045268282294273376,0.03450513631105423,0.005432553589344025,0.006614257115870714,0.037220120429992676,0.00013778172433376312,0.003733130171895027,0.004672207869589329,3.175346612930298,12.193999290466309,0.1473555713891983,0.010751239955425262,0.030340049415826797,2.2326242923736572,4.674522399902344,0.17327027022838593,0.013788826763629913,0.03456864506006241,2.338799238204956,5.323491096496582,36.0,0.037220120429992676,0.016515139490365982,270.1186828613281,3.072643280029297,1.4448246955871582,0.005888484884053469,0.5269083380699158,4.3748401367338374e-05,0.0026373974978923798
subject_02,window2,2,0,normal,0,Rest1,60.0,120.0,1.0,2355.0,435.0,0.0,0.0,0,0,0.029166666666666667,0,41,0,1.0,0.9,1.0,1.43125,0.40822253652008694,0.8945199251174927,1.51583731174469,0.7060969254820219,1,0.5884225986307211,0.42143726590023134,0.6141479664360675,-0.3455285256211946,0.6141479664360675,0,2.339174509048462,1.0,0.5824667609560262,-0.20431438459060502,1,1.0,0,0.33468836545944214,0.537273645401001,0.37909436225891113,0.6010039448738098,0.0444059744477272,0.07327738404273987,0.41808199882507324,0.0002624019980430603,0.01978972554206848,0.03982527181506157,3.3565590381622314,12.815617561340332,3.6067888736724854,0.05210046097636223,0.16720838844776154,4.92082405090332,26.497526168823242,4.024870872497559,0.05315737426280975,0.2165895253419876,4.883206367492676,26.085674285888672,47.0,0.41808199882507324,0.23899662494659424,1593.2274169921875,3.033634662628174,0.7492792010307312,0.05956286936998367,0.6563934087753296,0.0053695752285420895,0.3450488746166229
subject_02,window3,3,0,normal,0,Rest1,120.0,180.0,1.0,2355.0,435.0,0.0,0.0,0,0,0.025,0,41,0,1.0,0.925,1.0,1.475,0.3176125651537405,0.8175680935382843,0.5964950919151306,0.6112558624283481,1,0.7502127148264772,0.7189151910230254,0.7486283845457197,-0.17058967909999856,0.7502127148264772,0,1.1481071710586548,1.0,0.5652837695461223,-0.23870483532699383,1,1.0,0,0.32589489221572876,0.403570294380188,0.3811803460121155,0.46864402294158936,0.05528545007109642,0.0773034393787384,0.40802884101867676,9.512901306152344e-05,0.037020668387413025,0.04417991638183594,3.2197909355163574,10.908447265625,2.1083791255950928,0.06832589209079742,0.2023112177848816,3.4352779388427734,11.506704330444336,2.42940616607666,0.0869244784116745,0.24359561502933502,3.4112753868103027,11.0939359664917,53.0,0.40802884101867676,0.36991381645202637,4288.7646484375,3.3513152599334717,0.8991546034812927,0.06382434070110321,0.5663344860076904,0.005975821055471897,0.4787119925022125
subject_02,window4,4,1,stress,1,Task1,180.0,240.0,1.0,2355.0,435.0,0.0,0.0,0,0,0.025,0,35,0,1.0,0.8235294117647058,1.0,1.6985294117647058,0.2932191117244842,0.8495737314224243,1.1739290952682495,0.7378843147472642,1,0.6941085439786845,0.7438936481462558,0.6962945214149555,-0.19504221469002722,0.7438936481462558,0,1.8483494520187378,1.0,0.5173774982232276,-0.2672429656838611,1,1.0,0,0.1948191225528717,0.18814633786678314,0.22148403525352478,0.2092616856098175,0.026664914563298225,0.03302380070090294,0.17061340808868408,0.0001546032726764679,0.013358637690544128,0.03190385550260544,2.2580068111419678,6.097607135772705,0.8890873193740845,0.05399703606963158,0.10530801862478256,1.9516727924346924,3.4776806831359863,0.9502402544021606,0.054343804717063904,0.12869754433631897,1.9743400812149048,3.5840203762054443,45.0,0.17061340808868408,0.0970650315284729,1103.48486328125,3.21394944190979,1.3696250915527344,0.031775347888469696,0.5825863480567932,0.0010905712842941284,0.08107150346040726
subject_02,window5,5,1,stress,1,Task1,240.0,300.0,1.0,2355.0,435.0,0.0,0.0,0,0,0.025,0,40,0,1.0,0.7435897435897436,1.0,1.4871794871794872,0.2877541445836333,0.6258490085601807,1.0631542205810547,0.7920792079207921,1,0.6759176392991351,0.6710158381958614,0.6315406604383739,-0.2164484037418882,0.6759176392991351,0,1.4410827159881592,1.0,0.48376214081098745,-0.3485222886371234,1,1.0,0,0.24292142689228058,0.2975548803806305,0.28464359045028687,0.35715124011039734,0.04172215610742569,0.07898136228322983,0.5052905082702637,0.00010494887828826904,0.019382432103157043,0.02639724314212799,4.651027679443359,23.71870231628418,1.5311291217803955,0.05025053024291992,0.15274707973003387,3.0976459980010986,9.24832820892334,2.036419630050659,0.06050450727343559,0.18601767718791962,3.414348840713501,12.087542533874512,45.0,0.5052905082702637,0.19023901224136353,4814.17578125,2.9570648670196533,0.9398598074913025,0.054470244795084,0.6382675170898438,0.006238055415451527,0.35904571413993835
subject_02,window6,6,1,stress,1,Task1,300.0,360.0,1.0,2355.0,435.0,0.0,0.0,0,0,0.025,0,33,0,1.0,0.9375,1.0,1.8125,0.23854127703245404,0.847032368183136,2.01284122467041,0.8822303282959875,1,0.6749472180891217,0.6828804855073806,0.6364293307110787,-0.6361254677127703,0.6828804855073806,0,2.484231948852539,1.0,0.5465623831097363,-0.24735658869610244,1,1.0,0,0.23390932381153107,0.42545217275619507,0.26357927918434143,0.46092236042022705,0.02966996282339096,0.0576806515455246,0.4293217658996582,0.00046112388372421265,0.017316728830337524,0.02924881875514984,5.874690532684326,37.54680252075195,2.4935765266418457,0.065557561814785,0.124351367354393,4.370462417602539,18.29908561706543,2.5508058071136475,0.08087367564439774,0.143172025680542,4.342410564422607,17.906606674194336,57.0,0.4293217658996582,0.11624301970005035,931.0132446289062,3.249234199523926,0.26401376724243164,0.036411602050065994,0.6028454303741455,0.00332705769687891,0.23981976509094238
subject_02,window7,7,1,stress,1,Task1,360.0,420.0,1.0,2355.0,435.0,0.0,0.0,0,0,0.029166666666666667,0,31,0,1.0,0.8,1.0,1.925,0.47320882263019837,0.8568118512630463,1.9636427164077759,0.9129755080771235,1,0.48637771391377504,0.5269653979468061,0.4701016425858398,-0.2983629647800359,0.5269653979468061,0,2.461604595184326,1.0,0.5619626467890596,-0.22749483152668892,1,1.0,0,0.2667766511440277,0.31845518946647644,0.30215930938720703,0.33852460980415344,0.03538266569375992,0.03463665023446083,0.15924417972564697,0.00038464367389678955,0.023813791573047638,0.04358983039855957,1.4856120347976685,2.137688398361206,1.9683486223220825,0.04858197271823883,0.18764403462409973,3.9660472869873047,16.410694122314453,2.1275928020477295,0.056502293795347214,0.21589171886444092,3.9490303993225098,16.579099655151367,52.0,0.15924417972564697,0.12692344188690186,413.99365234375,3.5140891075134277,0.8569989204406738,0.03662868216633797,0.5076537132263184,0.0011996976099908352,0.12748479843139648
subject_02,window8,8,1,stress,1,Task1,420.0,480.0,1.0,2355.0,435.0,0.0,0.0,0,0,0.04583333333333333,0,26,0,1.0,0.84,1.0,2.37,0.5097506291227518,0.813217282295227,2.85052752494812,0.9338196977592496,1,0.7681386398092797,0.8812662792599435,0.5213859976293629,-0.4516939813572104,0.8812662792599435,0,3.5238568782806396,1.0,0.5889251887368255,-0.21725802214550527,1,1.0,0,0.2256564199924469,0.5493475794792175,0.24617251753807068,0.555591344833374,0.02051609382033348,0.034266069531440735,0.19054239988327026,0.00011328980326652527,0.007283482700586319,0.024746283888816833,3.4723119735717773,13.176804542541504,3.396097421646118,0.021264873445034027,0.05784209072589874,4.819114685058594,24.287466049194336,3.39738130569458,0.02412371337413788,0.07985378056764603,4.619391441345215,22.54775619506836,41.0,0.19054239988327026,0.11085402965545654,1681.7540283203125,2.8993470668792725,0.5332555770874023,0.027294427156448364,0.6489711999893188,0.0011741634225472808,0.06539801508188248
subject_02,window9,9,1,stress,1,Task1,480.0,540.0,1.0,2355.0,435.0,0.0,0.0,0,0,0.025,0,35,0,1.0,0.8823529411764706,1.0,1.7352941176470589,0.32434875928115087,0.900066077709198,1.9791607856750488,0.924960917144346,1,0.562573596775034,0.5624891660173804,0.5647281444175221,0.5265721508376529,0.5647281444175221,0,2.4975857734680176,1.0,0.5502458042549335,-0.22919040839947158,1,1.0,0,0.19509567320346832,0.1577976942062378,0.22487998008728027,0.17407037317752838,0.029784303158521652,0.03197966143488884,0.15474194288253784,0.00038627535104751587,0.017809785902500153,0.042466599494218826,1.7436221837997437,3.5307259559631348,0.8171564936637878,0.07127438485622406,0.1416729986667633,2.5679843425750732,5.941831111907959,0.9718984365463257,0.07740167528390884,0.17835767567157745,2.711784839630127,7.161652088165283,50.0,0.15474194288253784,0.11924885213375092,400.5897216796875,3.408273458480835,1.2547056674957275,0.03291488066315651,0.5415030717849731,0.0010226988233625889,0.09549017250537872
subject_02,window10,10,1,stress,1,Task1,540.0,600.0,1.0,2355.0,435.0,0.0,0.0,0,0,0.029166666666666667,0,27,0,1.0,0.7692307692307693,1.0,2.201923076923077,0.41932283022848416,0.8804547190666199,2.2309341430664062,0.9458051068264721,1,0.6547579907973791,0.6488926051023798,0.6476332591581007,-0.5611843250436198,0.6547579907973791,0,2.8023009300231934,1.0,0.533489156760853,-0.24428638190699314,1,1.0,0,0.26175403594970703,0.7178978323936462,0.3036647140979767,0.8235176801681519,0.04191068559885025,0.10853893309831619,0.6993765830993652,0.00033762305974960327,0.015445560216903687,0.02683701366186142,5.1920857429504395,27.544471740722656,4.8902177810668945,0.03251710534095764,0.09773404151201248,5.969435691833496,35.42113494873047,5.58959436416626,0.041798509657382965,0.11413604766130447,5.902725696563721,34.763771057128906,45.0,0.6993765830993652,0.29126620292663574,2071.41015625,2.6088497638702393,0.28736430406570435,0.0604713074862957,0.7053988575935364,0.011780699715018272,0.6091742515563965
subject_02,window11,11,1,stress,1,Task1,600.0,660.0,1.0,2355.0,435.0,0.0,0.0,0,0,0.025,0,34,0,1.0,0.7878787878787878,1.0,1.7272727272727273,0.40430398413638846,0.7444120645523071,2.3535327911376953,0.9562272016675352,1,0.5960135801282305,0.4554096986894482,0.5782013070082563,0.3838798283404809,0.5960135801282305,0,2.9735782146453857,1.0,0.5364427103924317,-0.2764573514641897,1,1.0,0,0.2618058919906616,0.2326931655406952,0.30406323075294495,0.26007914543151855,0.042257338762283325,0.04812629520893097,0.19200927019119263,8.925795555114746e-05,0.022534243762493134,0.05300542712211609,1.5827399492263794,1.6522362232208252,1.541990876197815,0.07256530970335007,0.19143590331077576,3.4552001953125,15.735917091369629,1.722756028175354,0.08330176770687103,0.2329826056957245,3.413121461868286,15.259333610534668,50.0,0.19200927019119263,0.18076515197753906,2150.931640625,3.3664889335632324,1.0872972011566162,0.048670582473278046,0.5643655061721802,0.0023161403369158506,0.20509114861488342
subject_02,window12,12,1,stress,1,Task1,660.0,720.0,1.0,2355.0,435.0,0.0,0.0,0,0,0.025,0,30,0,1.0,0.7241379310344828,1.0,1.9741379310344827,0.37144245042066115,0.7204868197441101,2.7865705490112305,0.9062011464304325,1,0.6744157318129105,0.2906553445811879,0.6669191994181993,-0.14917358757248264,0.6744157318129105,0,3.2956767082214355,1.0,0.5010879075399916,-0.3097763031484624,1,1.0,0,0.2611265182495117,0.49630007147789,0.31594082713127136,0.643393337726593,0.05481429025530815,0.15096832811832428,0.9840385913848877,0.00028437376022338867,0.01806885004043579,0.04527304321527481,5.676858425140381,32.015750885009766,3.3025834560394287,0.04326239973306656,0.15227541327476501,5.602078914642334,31.414230346679688,4.286622047424316,0.04934196174144745,0.17573745548725128,5.719029903411865,32.38956832885742,41.0,0.9840385913848877,0.13295096158981323,3460.248779296875,2.456573009490967,0.37455257773399353,0.0811748206615448,0.722393274307251,0.022791435942053795,1.0576376914978027
subject_02,window13,13,1,stress,1,Task1,720.0,780.0,1.0,2355.0,435.0,0.0,0.0,0,0,0.0375,0,30,0,1.0,0.7241379310344828,1.0,1.956896551724138,0.5307436965198417,0.8487475514411926,3.8681352138519287,0.9739447628973423,1,0.5235843721563366,0.501107330311448,0.5296488868460894,-0.38488801373790915,0.5296488868460894,0,4.7278265953063965,1.0,0.5488782813697456,-0.23788580869939668,1,1.0,0,0.2605508863925934,0.26283782720565796,0.30418694019317627,0.3047753572463989,0.04363604262471199,0.052959952503442764,0.21561270952224731,4.83095645904541e-05,0.025859691202640533,0.045716941356658936,1.5638176202774048,1.6292808055877686,1.1235483884811401,0.05616797134280205,0.16057413816452026,1.9301890134811401,2.8052587509155273,1.2305474281311035,0.05659668892621994,0.17829586565494537,1.8315967321395874,2.2924346923828125,49.0,0.21561270952224731,0.18141043186187744,4462.2236328125,3.259289026260376,1.4723072052001953,0.053714290261268616,0.6029199361801147,0.0028047566302120686,0.230734184384346
subject_02,window14,14,0,normal,0,Rest2,780.0,840.0,1.0,2355.0,435.0,0.0,0.0,0,0,0.03333333333333333,0,35,0,1.0,0.9705882352941176,1.0,1.6764705882352942,0.23754285174663026,0.8977426290512085,2.469683885574341,0.8311620635747785,1,0.6999331748466145,0.615673284396475,0.6164890321213592,0.46591506439855856,0.6999331748466145,0,3.310131549835205,1.0,0.5594981496416361,-0.22500215921230504,1,1.0,0,0.27275532484054565,0.3082004487514496,0.3005443215370178,0.3202346861362457,0.027788985520601273,0.026822233572602272,0.1445016860961914,0.0026220083236694336,0.0205252543091774,0.028144050389528275,2.1281538009643555,5.967757701873779,1.3984745740890503,0.04402660205960274,0.17009425163269043,2.71525502204895,6.5464863777160645,1.5429762601852417,0.05172712355852127,0.18675538897514343,2.717501640319824,6.728067398071289,46.0,0.1445016860961914,0.0902797281742096,55.11085891723633,3.447883367538452,1.2534533739089966,0.026910599321126938,0.4736694097518921,0.0007194322533905506,0.0686163604259491
subject_02,window15,15,0,normal,0,Rest2,840.0,900.0,1.0,2355.0,435.0,0.0,0.0,0,0,0.029166666666666667,0,35,0,1.0,0.9117647058823529,1.0,1.6764705882352942,0.3082818355452243,0.7415375113487244,1.0156956911087036,0.6107347576862949,1,0.468764892457134,0.6457943366010213,0.6899913869123668,-0.32848103787883304,0.6899913869123668,0,1.7459739446640015,1.0,0.5571904330165086,-0.2640157515118069,1,1.0,0,0.25725966691970825,0.7085391879081726,0.2957476079463959,0.8197612166404724,0.03848794102668762,0.11482580006122589,0.7427048683166504,0.000322192907333374,0.014352977275848389,0.022466246038675308,5.758810997009277,32.37425994873047,4.600475788116455,0.046127401292324066,0.09329769015312195,5.755542278289795,32.302886962890625,5.3431806564331055,0.05110093206167221,0.11735214293003082,5.8301167488098145,32.9352912902832,40.0,0.7427048683166504,0.1012384444475174,2305.084228515625,2.337188243865967,0.38131648302078247,0.057318590581417084,0.7260147929191589,0.01318496372550726,0.5866514444351196
subject_02,window16,16,1,stress,1,Task2,900.0,960.0,1.0,2355.0,435.0,0.0,0.0,0,0,0.029166666666666667,0,34,0,1.0,0.8787878787878788,1.0,1.7424242424242424,0.45802886385164976,0.9073058366775513,2.324054479598999,0.693069306930693,1,0.5761104961231289,0.46225074842888125,0.5635241710961455,0.09039863804288559,0.5761104961231289,0,3.191633462905884,1.0,0.5889238106706466,-0.1950299612313362,1,1.0,0,0.3176419138908386,0.40868237614631653,0.3658953011035919,0.4645991623401642,0.04825339838862419,0.06457957625389099,0.2813299894332886,0.0005797669291496277,0.026356525719165802,0.038637615740299225,2.3613734245300293,4.702787399291992,1.993430495262146,0.06715873628854752,0.15297380089759827,2.8162405490875244,7.683610916137695,2.2747604846954346,0.06773850321769714,0.1758619248867035,2.8271052837371826,7.713724613189697,48.0,0.2813299894332886,0.2462693452835083,485.23834228515625,3.253335952758789,1.132526159286499,0.05700894072651863,0.5784178972244263,0.004170522093772888,0.3119477927684784
subject_02,window17,17,1,stress,1,Task2,960.0,1020.0,1.0,2355.0,435.0,0.0,0.0,0,0,0.029166666666666667,0,23,0,1.0,0.6363636363636364,1.0,2.659090909090909,0.17468415422386022,0.9315052628517151,2.7777535915374756,0.955706096925482,1,0.5431536245035105,0.5411170241669754,0.604390523706179,-0.019581662567169658,0.604390523706179,0,3.4345510005950928,1.0,0.40695070081261264,-0.33254355482201525,1,1.0,0,0.15581153333187103,0.30386513471603394,0.18367493152618408,0.35941052436828613,0.0278633963316679,0.05799329653382301,0.37653207778930664,0.0002104826271533966,0.011805400252342224,0.012801770120859146,4.603483200073242,23.0376033782959,2.1517720222473145,0.027171729132533073,0.07860372960567474,5.513365745544434,32.45217514038086,2.528304100036621,0.02766324393451214,0.09351208806037903,5.428779602050781,31.567684173583984,53.0,0.37653207778930664,0.19264107942581177,1788.8135986328125,3.014923095703125,0.49382448196411133,0.03759077191352844,0.6618273258209229,0.0033632225822657347,0.21939833462238312
subject_02,window18,18,1,stress,1,Task2,1020.0,1080.0,1.0,2355.0,435.0,0.0,0.0,0,0,0.029166666666666667,0,29,0,1.0,0.7142857142857143,1.0,2.044642857142857,0.5111666166021248,0.6454291939735413,2.7864859104156494,0.9322563835330901,1,0.6451961988393756,0.6751812765230008,0.6798050331160079,-0.6235006999624765,0.6798050331160079,0,3.5133044719696045,1.0,0.5390642706949232,-0.29656533307036925,1,1.0,0,0.24211405217647552,0.25325387716293335,0.2860620617866516,0.3080556392669678,0.04394800215959549,0.062120966613292694,0.40007543563842773,0.000965803861618042,0.02737167477607727,0.05282190069556236,3.6408016681671143,17.2668399810791,1.7305042743682861,0.030178165063261986,0.16836674511432648,4.004026889801025,19.434465408325195,2.130579710006714,0.03138257935643196,0.18782873451709747,4.142890930175781,20.90961265563965,55.0,0.40007543563842773,0.17936885356903076,414.236572265625,3.352191209793091,1.0311596393585205,0.05327436327934265,0.5950866937637329,0.003859014483168721,0.31847426295280457
subject_02,window19,19,1,stress,1,Task2,1080.0,1140.0,1.0,2355.0,435.0,0.0,0.0,0,0,0.025,0,29,0,1.0,0.8214285714285714,1.0,2.107142857142857,0.4214007190570508,0.9590176939964294,2.078038454055786,0.9072433559145389,1,0.3822317317606146,0.5129392815440833,0.4294177006042265,-0.28958242863737155,0.5129392815440833,0,2.568909168243408,1.0,0.5549916442885438,-0.2084668253080586,1,1.0,0,0.2988319396972656,0.27754107117652893,0.338858038187027,0.3000967502593994,0.04002608358860016,0.05662013590335846,0.31690263748168945,0.00036337971687316895,0.01497766375541687,0.030692724511027336,2.721818447113037,8.864179611206055,1.3449876308441162,0.07516389340162277,0.1915772706270218,2.594815731048584,6.288756370544434,1.4850341081619263,0.0817178338766098,0.22508108615875244,2.523513078689575,6.051060676574707,54.0,0.31690263748168945,0.1741979420185089,872.0737915039062,3.307821035385132,1.292007327079773,0.04990429803729057,0.6118528246879578,0.0032058395445346832,0.2596280574798584
subject_02,window20,20,1,stress,1,Task2,1140.0,1200.0,1.0,2355.0,435.0,0.0,0.0,0,0,0.025,0,33,0,1.0,0.78125,1.0,1.8359375,0.24390482776853317,0.7136732339859009,2.7457237243652344,0.9072433559145389,1,0.6077389965519041,0.576973151360411,0.594066837455882,0.3378229300629668,0.6077389965519041,0,3.60476016998291,1.0,0.48567144833056,-0.3262304845613915,1,1.0,0,0.2834641933441162,0.3437725901603699,0.3275597095489502,0.37727952003479004,0.04409551993012428,0.047117073088884354,0.2543487548828125,0.0003806501626968384,0.03306010365486145,0.03664206340909004,2.6121160984039307,7.935311794281006,2.234715461730957,0.06353042274713516,0.14795514941215515,3.955207586288452,18.969743728637695,2.4307258129119873,0.07958496361970901,0.16855892539024353,3.815869092941284,17.636920928955078,48.0,0.2543487548828125,0.19601035118103027,668.1780395507812,3.445711135864258,0.9298845529556274,0.04379313811659813,0.48622605204582214,0.002220018533989787,0.1998928040266037
subject_02,window21,21,0,normal,0,Rest3,1200.0,1260.0,1.0,2355.0,435.0,0.0,0.0,0,0,0.03333333333333333,0,35,0,1.0,0.9705882352941176,1.0,1.7058823529411764,0.2520008640100153,0.8709374666213989,2.3429036140441895,0.8551328817092235,1,0.5458380725462062,0.5864719565671321,0.5936233523180376,-0.3894320559149325,0.5936233523180376,0,2.943895101547241,1.0,0.5638355533206517,-0.22808894675391111,1,1.0,0,0.25979915261268616,0.6104509830474854,0.3097807466983795,0.7523202300071716,0.04998159408569336,0.14513710141181946,0.9865646362304688,5.25694340467453e-05,0.019384749233722687,0.0410529226064682,5.96923303604126,35.54840087890625,4.222030162811279,0.030323341488838196,0.13832534849643707,6.0653300285339355,36.44663619995117,5.208594799041748,0.03037591092288494,0.1528506875038147,6.124732494354248,36.957157135009766,45.0,0.9865646362304688,0.15368783473968506,18763.318359375,2.48205828666687,0.21262682974338531,0.07488103210926056,0.7324396967887878,0.021064776927232742,1.060332179069519
subject_02,window22,22,0,normal,0,Rest3,1260.0,1320.0,1.0,2355.0,435.0,0.0,0.0,0,0,0.029166666666666667,0,39,0,1.0,0.7105263157894737,1.0,1.5263157894736843,0.34682505668561336,0.901506245136261,1.9220494031906128,0.8629494528400209,1,0.7248951961842618,0.7308426236208916,0.7123410501252528,-0.6401201265527533,0.7308426236208916,0,2.743976593017578,1.0,0.4882580433214735,-0.2747592798076892,1,1.0,0,0.26383548974990845,0.2404099851846695,0.3079548478126526,0.280561238527298,0.04411936551332474,0.056362416595220566,0.31843888759613037,0.0005284398794174194,0.031028181314468384,0.04589852690696716,2.7947514057159424,9.804058074951172,1.694754719734192,0.07820182293653488,0.22515127062797546,4.555056571960449,23.628314971923828,2.0131936073303223,0.08519035577774048,0.2682031989097595,4.745145797729492,25.705408096313477,48.0,0.31843888759613037,0.1795264333486557,602.5905151367188,3.2760324478149414,0.9984048008918762,0.05183577910065651,0.5752107501029968,0.0031767222099006176,0.24591554701328278
subject_02,window23,23,1,stress,1,Task3,1320.0,1380.0,1.0,2355.0,435.0,0.0,0.0,0,0,0.03333333333333333,0,39,0,1.0,0.9210526315789473,1.0,1.519736842105263,0.40958100992406976,0.8174393773078918,0.984602153301239,0.6977592496091715,1,0.5491232259826557,0.7125824059553851,0.689842358234414,-0.3826786319446511,0.7125824059553851,0,1.514641523361206,1.0,0.5912953556088,-0.21692911371832535,1,1.0,0,0.26271262764930725,0.5899755358695984,0.29030951857566833,0.600440502166748,0.02759690396487713,0.03290070220828056,0.17616459727287292,0.00026360899209976196,0.016644731163978577,0.028952661901712418,2.4457926750183105,6.767472267150879,4.5081400871276855,0.0647737979888916,0.13227787613868713,6.659669399261475,44.89718246459961,4.577099800109863,0.06511367857456207,0.16190196573734283,6.512650489807129,43.420196533203125,56.0,0.17616459727287292,0.11931300163269043,668.2545776367188,3.5047318935394287,0.29748544096946716,0.03064795769751072,0.545363187789917,0.0010824562050402164,0.10326653718948364
subject_02,window24,24,1,stress,1,Task3,1380.0,1440.0,1.0,2355.0,435.0,0.0,0.0,0,0,0.029166666666666667,0,33,0,1.0,0.8125,1.0,1.7578125,0.41893521189039873,0.7247528433799744,4.05261754989624,0.9702970297029703,1,0.5007213913200839,0.4979272983721939,0.5456986876191797,-0.45155871271763315,0.5456986876191797,0,4.837510585784912,1.0,0.5506805635671196,-0.2703279861824067,1,1.0,0,0.23030367493629456,0.37976378202438354,0.26574137806892395,0.4429945647716522,0.03543770685791969,0.06880013644695282,0.5211818218231201,0.00025218725204467773,0.017170175909996033,0.035182662308216095,5.826385021209717,37.861358642578125,3.0191237926483154,0.03993259370326996,0.15567968785762787,6.533514976501465,44.745765686035156,3.5403056144714355,0.04130880534648895,0.1783730536699295,6.646265029907227,45.99164962768555,61.0,0.5211818218231201,0.13812866806983948,2066.564208984375,3.305983543395996,0.4068000614643097,0.044450342655181885,0.6168803572654724,0.004733458627015352,0.36534667015075684
subject_02,window25,25,1,stress,1,Task3,1440.0,1500.0,1.0,2355.0,435.0,0.0,0.0,0,0,0.03333333333333333,0,30,0,1.0,0.8620689655172413,1.0,1.9396551724137931,0.2219006892620768,0.9399968385696411,4.66790771484375,0.9025534132360604,1,0.4319144756777926,0.5961657614572263,-0.012500856194175559,-0.5862057610585769,0.5961657614572263,0,5.39280891418457,1.0,0.5113977929855197,-0.25090492838689815,1,1.0,0,0.26061147451400757,0.3163236677646637,0.31224003434181213,0.38369327783584595,0.05162856727838516,0.08067794144153595,0.4366731643676758,0.0008038878440856934,0.023268789052963257,0.03778921440243721,3.0820388793945312,10.396599769592285,2.161465883255005,0.06628930568695068,0.16823314130306244,4.390814781188965,22.88186264038086,2.5981390476226807,0.07431259006261826,0.20409059524536133,4.292722702026367,22.016294479370117,51.0,0.4366731643676758,0.33430537581443787,543.19482421875,3.173750638961792,0.8306561708450317,0.06692791730165482,0.6354583501815796,0.006508930586278439,0.46789640188217163
subject_02,window26,26,0,normal,0,Rest4,1500.0,1560.0,1.0,2355.0,435.0,0.0,0.0,0,0,0.029166666666666667,0,32,0,1.0,0.9032258064516129,1.0,1.8951612903225807,0.3255418482389619,0.8032917976379395,2.109811305999756,0.7936425221469515,1,0.4855259112321049,0.7141779224186146,0.7286970710127467,-0.5443929272852273,0.7286970710127467,0,3.4952151775360107,1.0,0.5589528770523339,-0.24682384659529077,1,1.0,0,0.27910664677619934,0.23391836881637573,0.3226151764392853,0.25959688425064087,0.043508533388376236,0.05967354401946068,0.39279705286026,6.130337715148926e-05,0.021758198738098145,0.039252325892448425,4.145482540130615,21.162193298339844,1.057357668876648,0.07153648883104324,0.1597507745027542,1.6693711280822754,2.461622953414917,1.1444891691207886,0.09452085196971893,0.19982792437076569,1.5476442575454712,1.8978455066680908,49.0,0.39279705286026,0.12228846549987793,6406.38427734375,3.3261172771453857,1.5778354406356812,0.048509128391742706,0.5460899472236633,0.0035609318874776363,0.26724228262901306
subject_02,window27,27,0,normal,0,Rest4,1560.0,1620.0,1.0,2355.0,435.0,0.0,0.0,0,0,0.029166666666666667,0,26,0,1.0,0.8,1.0,2.28,0.32797253714886143,0.8780344128608704,2.3185343742370605,0.877019280875456,1,0.4483445405502565,0.6189691738785611,0.5595506343407197,-0.49317070055047896,0.6189691738785611,0,3.373163938522339,1.0,0.5183917611446586,-0.25849826249756713,1,1.0,0,0.18340221047401428,0.19105350971221924,0.216863214969635,0.24661587178707123,0.03346100449562073,0.0650862604379654,0.43627917766571045,2.477318048477173e-06,0.02079281210899353,0.029869988560676575,5.282434940338135,29.67025375366211,1.20311439037323,0.02645622380077839,0.10060491412878036,3.486233711242676,15.425025939941406,1.6393935680389404,0.03310101851820946,0.1390002816915512,4.274901866912842,21.752527236938477,45.0,0.43627917766571045,0.09989485144615173,175401.4375,2.9816198348999023,1.2166823148727417,0.042212408035993576,0.616753101348877,0.00423622177913785,0.24101372063159943
subject_02,window28,28,1,stress,1,Task4,1620.0,1680.0,1.0,2355.0,435.0,0.0,0.0,0,0,0.029166666666666667,0,38,0,1.0,0.7297297297297297,1.0,1.5675675675675675,0.37431863944938815,0.8178605437278748,0.5857627391815186,0.6456487754038561,1,0.6495488318093395,0.23307252742174614,0.6685465373979156,0.5384234681995317,0.6685465373979156,0,0.8150248527526855,0.8150248527526855,0.5226849984514397,-0.09806113803945093,1,1.0,0,0.289546400308609,0.16042408347129822,0.33963146805763245,0.18328510224819183,0.05008506774902344,0.05296601727604866,0.22573187947273254,0.0015689432621002197,0.02747458964586258,0.07263513654470444,1.4385244846343994,1.5783531665802002,0.8061736822128296,0.0901709794998169,0.2363661229610443,1.468863606452942,1.6919232606887817,1.0056298971176147,0.0982186570763588,0.2856075167655945,1.4763082265853882,2.285183906555176,52.0,0.22573187947273254,0.19945621490478516,143.8741912841797,3.4565091133117676,1.856972575187683,0.055342111736536026,0.5418565273284912,0.002805398777127266,0.27632346749305725
subject_02,window29,29,1,stress,1,Task4,1680.0,1740.0,1.0,2355.0,435.0,0.0,0.0,0,0,0.029166666666666667,0,36,0,1.0,0.9714285714285714,1.0,1.6428571428571428,0.4023202729647688,0.8408876657485962,0.46557632088661194,0.6352266805627931,1,0.5526089992130228,0.48940522903748057,0.5515784981357249,-0.2771109929339045,0.5526089992130228,0,0.6161506175994873,0.6161506175994873,0.6476524487009105,0.18607993850742544,1,1.0,0,0.2977547347545624,0.2387627512216568,0.3353734612464905,0.24692562222480774,0.037618737667798996,0.03733005002140999,0.1588382124900818,0.00030618906021118164,0.026533201336860657,0.04546143859624863,1.4250661134719849,1.7563108205795288,1.6441444158554077,0.09367264807224274,0.2194536179304123,3.540158271789551,16.01692771911621,1.695233702659607,0.09638075530529022,0.2638477087020874,3.3251469135284424,14.43787670135498,55.0,0.1588382124900818,0.15349958837032318,518.74169921875,3.5517048835754395,1.1656243801116943,0.039568476378917694,0.5163523554801941,0.0013935327297076583,0.15447862446308136
subject_02,window30,30,1,stress,1,Task4,1740.0,1800.0,1.0,2355.0,435.0,0.0,0.0,0,0,0.025,0,41,0,1.0,0.9,1.0,1.46875,0.453098837067097,0.8639359176158905,0.4878866374492645,0.6081292339760291,1,-0.010730899690744472,0.06039328068721365,0.06726521068715909,-0.25155994060860537,0.06726521068715909,0,0.724805474281311,0.724805474281311,0.623449103691998,0.07445321438943586,1,1.0,0,0.35073545575141907,0.45640069246292114,0.41735872626304626,0.5260791182518005,0.066623255610466,0.08400160819292068,0.38573288917541504,0.0003638342022895813,0.03515174984931946,0.05523332208395004,2.433049201965332,5.562449932098389,2.3715176582336426,0.08830660581588745,0.22027824819087982,3.197960615158081,9.17785358428955,2.7572505474090576,0.08867044001817703,0.26633280515670776,3.18469500541687,9.179083824157715,51.0,0.38573288917541504,0.33670246601104736,1060.1595458984375,3.368459701538086,0.776909351348877,0.0757826566696167,0.5575884580612183,0.007056270260363817,0.5862413644790649
subject_02,window31,31,1,stress,1,Task4,1800.0,1860.0,1.0,2355.0,435.0,0.0,0.0,0,0,0.025,0,38,0,1.0,0.8918918918918919,1.0,1.5472972972972974,0.47877549952218373,0.7949327230453491,0.5502472519874573,0.5773840541948931,1,0.21148763270456764,0.5852162387810708,0.42750845192686765,-0.5254872053158675,0.5852162387810708,0,1.0340027809143066,1.0,0.600389406613412,-0.2140053767905492,1,1.0,0,0.24105747044086456,0.2648586630821228,0.2726047933101654,0.27246204018592834,0.03154733031988144,0.02646416425704956,0.1066361665725708,0.0003437921404838562,0.02232825756072998,0.03705991059541702,0.8908357620239258,-0.20681743323802948,1.6068776845932007,0.08054696023464203,0.16997401416301727,3.9105865955352783,15.592775344848633,1.6648333072662354,0.08266231417655945,0.20788128674030304,3.808600425720215,14.978675842285156,55.0,0.1066361665725708,0.08197064697742462,310.1672668457031,3.661104440689087,0.7938919067382812,0.029484158381819725,0.4588039815425873,0.0007003519567660987,0.09325724095106125
subject_02,window32,32,1,stress,1,Task4,1860.0,1920.0,1.0,2355.0,435.0,0.0,0.0,0,0,0.025,0,36,0,1.0,0.9428571428571428,1.0,1.6642857142857144,0.421156314315805,0.8053300380706787,0.667851448059082,0.6065659197498697,1,0.7127914372648405,0.7183718752086827,0.7663971817703256,-0.7542632033646518,0.7663971817703256,0,1.2485063076019287,1.0,0.6034897514375986,-0.21052126904623614,1,1.0,0,0.1976030468940735,0.1707732081413269,0.23289646208286285,0.17411749064922333,0.035293418914079666,0.03396359086036682,0.1353664994239807,0.0016153454780578613,0.0200977623462677,0.036767035722732544,1.4662584066390991,1.524241328239441,1.1135036945343018,0.044335365295410156,0.15103155374526978,3.788038969039917,17.393449783325195,1.1277379989624023,0.046651508659124374,0.18349586427211761,3.3445093631744385,14.311954498291016,41.0,0.1353664994239807,0.13203905522823334,83.79981994628906,3.3075437545776367,1.2148239612579346,0.03570094704627991,0.4934374690055847,0.0011535254307091236,0.0983651876449585
subject_02,window33,33,1,stress,1,Task4,1920.0,1980.0,1.0,2355.0,435.0,0.0,0.0,0,0,0.029166666666666667,0,38,0,1.0,0.8648648648648649,1.0,1.587837837837838,0.40369611318567056,0.9075877070426941,0.30837199091911316,0.4773319437206879,1,0.36640798671091396,0.39337846193772624,0.28730336446816346,-0.1993984326697712,0.39337846193772624,0,0.2025439292192459,0.2025439292192459,0.6468003869797225,0.5847364852973047,1,1.0,0,0.3004254400730133,0.49566930532455444,0.3675944209098816,0.6405715942382812,0.06716896593570709,0.17016033828258514,1.275761365890503,0.0007915571331977844,0.030782826244831085,0.04891576990485191,6.3979902267456055,42.46524429321289,3.016516923904419,0.06293219327926636,0.16184327006340027,4.566479682922363,20.4641170501709,4.292278289794922,0.06372375041246414,0.21328109502792358,4.978680610656738,25.393253326416016,56.0,1.275761365890503,0.18123626708984375,1611.690673828125,2.9377353191375732,0.5363994240760803,0.0935051217675209,0.6836147904396057,0.028954539448022842,1.8741077184677124
subject_02,window34,34,1,stress,1,Task4,1980.0,2040.0,1.0,2355.0,435.0,0.0,0.0,0,0,0.03333333333333333,0,38,0,1.0,0.8918918918918919,1.0,1.5810810810810811,0.3347543493689871,0.7737584710121155,0.6966062784194946,0.6138613861386139,1,0.372476939047898,0.31612619702456235,0.3774469383322786,-0.36158053384978694,0.3774469383322786,0,1.1647825241088867,1.0,0.557183061567453,-0.25530422733715685,1,1.0,0,0.2986817955970764,0.500868558883667,0.36451396346092224,0.5939628481864929,0.06583216041326523,0.11133231967687607,0.5794720649719238,0.0001557469367980957,0.02764706313610077,0.04978033900260925,3.0556588172912598,9.585792541503906,3.005824089050293,0.07553742080926895,0.16759733855724335,4.313344955444336,18.46421241760254,3.585296154022217,0.09081480652093887,0.20737804472446442,4.189220428466797,17.900632858276367,47.0,0.5794720649719238,0.4299898147583008,3720.361083984375,3.0048463344573975,0.4090496301651001,0.08894972503185272,0.661205530166626,0.012394885532557964,0.7862516641616821
subject_02,window35,35,0,normal,0,Rest5,2055.0,2115.0,1.0,2355.0,435.0,0.0,0.0,0,0,0.025,0,27,0,1.0,0.7307692307692307,1.0,2.144230769230769,0.22743445515374466,0.7805058658123016,1.9179463386535645,0.8504429390307452,1,0.8920012728481923,0.9146278101124885,0.9094992384427208,-0.7610536161696285,0.9146278101124885,1,2.5019755363464355,1.0,0.4605380288538158,-0.32878415052771914,1,1.0,0,0.2859707176685333,0.8024680018424988,0.3154631555080414,0.8296111226081848,0.02949243038892746,0.037417393177747726,0.18691253662109375,0.00015745311975479126,0.013430271297693253,0.038634270429611206,2.1145453453063965,5.160394191741943,5.483909606933594,0.026624461635947227,0.12311816960573196,6.167115211486816,37.012779235839844,5.6708221435546875,0.03248694911599159,0.13007616996765137,6.102593421936035,36.468631744384766,44.0,0.18691253662109375,0.0987711250782013,1187.024169921875,3.1532928943634033,0.21641409397125244,0.0362117737531662,0.5999637246131897,0.0014000613009557128,0.09987404942512512
subject_02,window36,36,0,normal,0,Rest5,2115.0,2175.0,1.0,2355.0,435.0,0.0,0.0,0,0,0.03333333333333333,0,31,0,1.0,0.9333333333333333,1.0,1.8583333333333334,0.41050736414270017,0.8496655225753784,1.2119624614715576,0.7837415320479416,1,0.6138810875372063,0.6060560699211905,0.5749304828420672,-0.6146621456701766,0.6138810875372063,0,1.9560550451278687,1.0,0.5964855425761434,-0.20495677832048043,1,1.0,0,0.32372426986694336,0.7203133702278137,0.36428746581077576,0.7927223443984985,0.0405631922185421,0.08573447912931442,0.48418760299682617,8.916854858398438e-05,0.015929654240608215,0.02491213008761406,4.143145561218262,17.080228805541992,4.2680583000183105,0.05428207665681839,0.1093517392873764,3.904158115386963,15.7017183303833,4.691323757171631,0.06229489669203758,0.12711893022060394,3.9021027088165283,15.607813835144043,56.0,0.48418760299682617,0.4232654571533203,5429.41796875,3.019552707672119,0.4198266565799713,0.05595354363322258,0.6773921251296997,0.007350401487201452,0.5037633180618286
subject_02,window37,37,1,stress,1,Task5,2175.0,2235.0,1.0,2355.0,435.0,0.0,0.0,0,0,0.029166666666666667,0,34,0,1.0,0.9090909090909091,1.0,1.7727272727272727,0.2761639852283895,0.6764073371887207,0.711910605430603,0.713392391870766,1,0.47937379333628183,0.5081844077814986,0.5640728679076477,0.5667957069829892,0.5667957069829892,0,1.189640760421753,1.0,0.5464855592048805,-0.2891298966684497,1,1.0,0,0.20906147360801697,0.1125461682677269,0.2481868714094162,0.14031007885932922,0.03912539407610893,0.04120380058884621,0.19712424278259277,0.00010703504085540771,0.028258994221687317,0.047972992062568665,2.0033748149871826,4.945982933044434,0.7036742568016052,0.05881066620349884,0.17615577578544617,2.101505994796753,5.694081783294678,0.900798499584198,0.0706302598118782,0.2073405534029007,2.2072572708129883,7.032342433929443,52.0,0.19712424278259277,0.1885194331407547,1841.5074462890625,3.469153881072998,1.576495885848999,0.0415489636361599,0.5207607746124268,0.0016977533232420683,0.16788458824157715
subject_02,window38,38,0,normal,0,Rest6,2235.0,2295.0,1.0,2355.0,435.0,0.0,0.0,0,0,0.0375,0,33,0,1.0,0.8125,1.0,1.8046875,0.46960780046400846,0.664868175983429,1.0601353645324707,0.8514851485148515,1,0.4059889884359908,0.36685819895544836,0.13896044537309743,0.4261621793633647,0.4261621793633647,0,1.4432876110076904,1.0,0.5658823401392026,-0.2726310058881407,1,1.0,0,0.22978125512599945,0.11973754316568375,0.26212453842163086,0.12625189125537872,0.032343290746212006,0.03746779263019562,0.19101892411708832,0.0007194876670837402,0.020245477557182312,0.037123024463653564,2.145423412322998,5.438766956329346,0.6519804000854492,0.06341912597417831,0.20806938409805298,1.6901178359985352,2.9238338470458984,0.70328688621521,0.0722060576081276,0.23607882857322693,1.3813416957855225,2.2175533771514893,45.0,0.19101892411708832,0.1147465705871582,265.4892883300781,3.272430181503296,1.768462896347046,0.036819301545619965,0.5565465688705444,0.0014038356021046638,0.11024658381938934
subject_02,window39,39,0,normal,0,Rest6,2295.0,2355.0,1.0,2355.0,435.0,0.0,0.0,0,0,0.025,0,34,0,1.0,0.8787878787878788,1.0,1.7196969696969697,0.27686512927657925,0.8016449213027954,2.0514779090881348,0.8744137571651902,1,0.690460003724406,0.6845773124900345,0.6342575638564916,-0.5870884226147857,0.690460003724406,0,2.730590343475342,1.0,0.5345746902981253,-0.26673612371879263,1,1.0,0,0.23827388882637024,0.17414236068725586,0.27866441011428833,0.1969451606273651,0.040390513837337494,0.04033556580543518,0.19799557328224182,2.269446849822998e-05,0.032921209931373596,0.05470125377178192,1.693737268447876,3.9835517406463623,0.6511046886444092,0.013608529232442379,0.18043683469295502,0.6918894052505493,-0.7035775184631348,0.6966328024864197,0.014219428412616253,0.24639685451984406,0.5958556532859802,-0.857430636882782,37.0,0.19799557328224182,0.10537196695804596,8720.5556640625,3.150082588195801,2.0286667346954346,0.04257751628756523,0.51282799243927,0.001626957906410098,0.12055899947881699
subject_05,window1,1,0,normal,0,Rest1,0.0,60.0,1.0,2083.5,163.5,0.0,0.0,0,0,0.05416666666666667,0,4,0,0.3333333333333333,0.0,0.3333333333333333,17.5,0.8504125365572109,0.7303915023803711,1480928.375,0.6367899947889526,1,0.36182005678167767,0.3618220412905231,0.3618209922113336,0.3615681278816537,0.3618220412905231,0,32428608.0,1.0,0.22179042763382992,-0.5381323235989378,1,1.0,0,0.02784469537436962,0.026412006467580795,0.030995462089776993,0.02795824594795704,0.003150765784084797,0.0025644993875175714,0.009452737867832184,1.5262514352798462e-05,0.002219371497631073,0.0038877474144101143,0.7652702927589417,-0.4932427406311035,0.11833640187978745,0.0027889558114111423,0.018147552385926247,1.8912068605422974,3.2392096519470215,0.12688177824020386,0.0029272264800965786,0.020534919574856758,1.865546703338623,3.228714942932129,43.0,0.009452737867832184,0.008545376360416412,618.9378662109375,3.4225194454193115,1.6374518871307373,0.0029111485928297043,0.4512311816215515,6.576657142431941e-06,0.0007096712361089885
subject_05,window2,2,0,normal,0,Rest1,60.0,120.0,1.0,2083.5,163.5,0.0,0.0,0,0,0.029166666666666667,0,41,0,1.0,0.8,1.0,1.46875,0.3559946454734212,0.7388482689857483,0.38512465357780457,0.5383011985409067,1,0.4277212541364629,0.4152402816281527,0.4263954035087819,0.037918801279238565,0.4277212541364629,0,0.35231781005859375,0.35231781005859375,0.5915666126361672,0.3613929185561986,1,1.0,0,0.2846331000328064,0.32175520062446594,0.3328428268432617,0.39092889428138733,0.04820973798632622,0.0811251848936081,0.5530998706817627,1.2680888175964355e-05,0.022893577814102173,0.04207068681716919,4.40080451965332,23.135835647583008,2.423985481262207,0.06150195375084877,0.18506456911563873,5.083230495452881,30.33554458618164,2.9770853519439697,0.06987328082323074,0.2231098711490631,5.3094892501831055,32.60995864868164,59.0,0.5530998706817627,0.22285830974578857,43582.44140625,3.3276865482330322,0.7982065677642822,0.060607098042964935,0.6179234981536865,0.006581295747309923,0.525422990322113
subject_05,window3,3,0,normal,0,Rest1,120.0,180.0,1.0,2083.5,163.5,0.0,0.0,0,0,0.03333333333333333,0,40,0,1.0,0.8974358974358975,1.0,1.5,0.4375480360266893,0.8497576713562012,0.28958287835121155,0.4319958311620636,1,0.4165022183542246,0.4294546325669041,0.4142865433334402,0.47653270881426285,0.47653270881426285,0,0.19002512097358704,0.19002512097358704,0.671236257685007,0.6010320751029048,1,1.0,0,0.2472292184829712,0.1014864444732666,0.30136391520500183,0.12976375222206116,0.05413470417261124,0.05735664442181587,0.2778521776199341,0.004018455743789673,0.031975582242012024,0.06286950409412384,1.7804936170578003,3.2239956855773926,0.6797244548797607,0.07549832761287689,0.22823797166347504,1.67520010471344,4.800195693969727,0.7845754623413086,0.08225945383310318,0.29027748107910156,1.4889518022537231,3.83410906791687,52.0,0.2778521776199341,0.1889272779226303,69.14384460449219,3.488508701324463,1.7128781080245972,0.05795362591743469,0.5249786972999573,0.003289784537628293,0.3234582543373108
subject_05,window4,4,1,stress,1,Task1,180.0,240.0,1.0,2083.5,163.5,0.0,0.0,0,0,0.0375,0,34,0,1.0,0.8181818181818182,1.0,1.7878787878787878,0.3146416305121861,0.6794313788414001,2.1195523738861084,0.8963001563314226,1,0.5551138381299069,0.5968322151983684,0.6124941737587858,0.06333805802501337,0.6124941737587858,0,2.495464324951172,1.0,0.5216652164263832,-0.30602720220705804,1,1.0,0,0.2696824073791504,0.15626895427703857,0.319812148809433,0.19990722835063934,0.05012974143028259,0.06539441645145416,0.28677666187286377,0.0006423890590667725,0.025643140077590942,0.03787289187312126,2.299381971359253,4.729355335235596,0.6386339664459229,0.06951646506786346,0.2351028025150299,0.8413547873497009,-0.20096297562122345,0.8497608304023743,0.07742755115032196,0.2751653492450714,1.1279007196426392,0.5857938528060913,44.0,0.28677666187286377,0.2527660131454468,446.4151306152344,3.174290657043457,1.9296621084213257,0.05973920598626137,0.5823040008544922,0.004276429768651724,0.29873451590538025
subject_05,window5,5,1,stress,1,Task1,240.0,300.0,1.0,2083.5,163.5,0.0,0.0,0,0,0.04583333333333333,0,27,0,1.0,0.8076923076923077,1.0,2.269230769230769,0.40616725981873786,0.8349081873893738,2.6729843616485596,0.9640437727983324,1,0.6166639018632882,0.6213025231967862,0.5185322795762628,0.3682839247549022,0.6213025231967862,0,3.5069754123687744,1.0,0.5449271010225445,-0.24742344589027976,1,1.0,0,0.26387566328048706,0.4185010492801666,0.30128878355026245,0.4784768521785736,0.03741312772035599,0.0638844296336174,0.4095580577850342,3.7029385566711426e-05,0.015230566263198853,0.03450693190097809,4.704369068145752,24.477508544921875,2.729891777038574,0.054503247141838074,0.13763141632080078,4.9010515213012695,25.782676696777344,3.1394498348236084,0.05628817901015282,0.16292697191238403,4.991580009460449,26.544221878051758,42.0,0.4095580577850342,0.09176462888717651,11057.3662109375,3.0096166133880615,0.7397835850715637,0.04588649421930313,0.5986396074295044,0.004081220366060734,0.23020042479038239
subject_05,window6,6,1,stress,1,Task1,300.0,360.0,1.0,2083.5,163.5,0.0,0.0,0,0,0.0375,0,30,0,1.0,0.896551724137931,1.0,2.0172413793103448,0.46175158490725066,0.7920942008495331,3.3220224380493164,0.9848879624804586,1,0.5939537594352642,0.5841622088348436,0.6020107195353305,-0.4005021115919072,0.6020107195353305,0,4.0840654373168945,1.0,0.5971461651273476,-0.21757303631942482,1,1.0,0,0.2694505751132965,0.2868175804615021,0.3216657042503357,0.3715602159500122,0.05221514031291008,0.0945807620882988,0.605755090713501,0.002239227294921875,0.027513116598129272,0.04542652517557144,4.895211219787598,25.675588607788086,1.8927435874938965,0.08555781841278076,0.1816249042749405,4.400134086608887,22.095895767211914,2.4984986782073975,0.08940736949443817,0.20974509418010712,4.879767894744873,25.78046417236328,41.0,0.605755090713501,0.15142998099327087,270.51849365234375,2.9514248371124268,0.8863602876663208,0.0645267441868782,0.6028225421905518,0.008945520967245102,0.478549599647522
subject_05,window7,7,1,stress,1,Task1,360.0,420.0,1.0,2083.5,163.5,0.0,0.0,0,0,0.025,0,24,0,1.0,0.9130434782608695,1.0,2.4565217391304346,0.43837830483524287,0.8682447075843811,3.4684042930603027,0.9577905158936947,1,0.5251034325733615,0.5538525259420695,0.5461408981871534,-0.4779546991165194,0.5538525259420695,0,4.204591274261475,1.0,0.5967308827549208,-0.19943120341683307,1,1.0,0,0.2695765197277069,0.5193124413490295,0.30943816900253296,0.5998717546463013,0.039861638098955154,0.08512597531080246,0.5815722942352295,1.7039477825164795e-05,0.020311661064624786,0.03154236078262329,5.498641014099121,31.94390296936035,3.5861055850982666,0.051439836621284485,0.14492051303386688,5.590110778808594,32.49048614501953,4.167677879333496,0.053829118609428406,0.1685868799686432,5.694311141967773,33.48377227783203,47.0,0.5815722942352295,0.12817513942718506,34110.85546875,2.9265196323394775,0.4399782419204712,0.05287063866853714,0.6490668058395386,0.007246431428939104,0.41526293754577637
subject_05,window8,8,1,stress,1,Task1,420.0,480.0,1.0,2083.5,163.5,0.0,0.0,0,0,0.0375,0,26,0,1.0,0.72,1.0,2.17,0.5757079247326045,0.8361504673957825,2.5268714427948,0.9093277748827514,1,0.6155845954890592,0.7052718702888424,0.5475506130223703,-0.29236968591006246,0.7052718702888424,0,2.8958911895751953,1.0,0.5607123774197814,-0.2310354019679033,1,1.0,0,0.16871130466461182,0.2020719051361084,0.18773658573627472,0.21831807494163513,0.019025277346372604,0.021468374878168106,0.11928129196166992,9.312853217124939e-05,0.011208351701498032,0.017831992357969284,2.576671838760376,8.377020835876465,1.3491060733795166,0.03666619583964348,0.11168530583381653,4.559136390686035,22.908218383789062,1.4683873653411865,0.04669201001524925,0.1339944303035736,4.5640716552734375,23.191200256347656,46.0,0.11928129196166992,0.06507271528244019,1280.6868896484375,3.3463587760925293,0.7603037357330322,0.020300520583987236,0.5219162702560425,0.00046089108218438923,0.037851206958293915
subject_05,window9,9,1,stress,1,Task1,480.0,540.0,1.0,2083.5,163.5,0.0,0.0,0,0,0.029166666666666667,0,31,0,1.0,0.8666666666666667,1.0,1.9,0.29871403202599467,0.9258730709552765,2.627385139465332,0.918186555497655,1,0.5892736957794655,0.5641348346391426,0.5829924262370023,0.060760911861426056,0.5892736957794655,0,3.2543272972106934,1.0,0.5362808762744652,-0.23385322425468225,1,1.0,0,0.24498268961906433,0.24205711483955383,0.2929408848285675,0.30601397156715393,0.04795820266008377,0.07202666252851486,0.38276612758636475,0.0010438263416290283,0.026116788387298584,0.05134095624089241,3.280506134033203,11.478862762451172,1.3159165382385254,0.062403205782175064,0.14929459989070892,3.1877360343933105,10.49806022644043,1.6986826658248901,0.06885779649019241,0.19197389483451843,3.4315667152404785,12.100394248962402,48.0,0.38276612758636475,0.3263033628463745,366.69171142578125,3.1763949394226074,1.1605570316314697,0.05946491286158562,0.6070500612258911,0.005187839735299349,0.35941579937934875
subject_05,window10,10,1,stress,1,Task1,540.0,600.0,1.0,2083.5,163.5,0.0,0.0,0,0,0.025,0,29,0,1.0,0.8571428571428571,1.0,2.0714285714285716,0.5650901236645033,0.7888475656509399,2.835186004638672,0.9072433559145389,1,0.4888997866530707,0.46068663221485023,0.482682149328117,-0.05958808889725303,0.4888997866530707,0,3.416240692138672,1.0,0.6123841799564939,-0.20437272052828215,1,1.0,0,0.2881583273410797,0.2604365050792694,0.33103516697883606,0.28626731038093567,0.04287685453891754,0.04948044195771217,0.18655502796173096,0.0007649660110473633,0.021267563104629517,0.048029348254203796,1.6168893575668335,1.6760053634643555,1.0644712448120117,0.05100315064191818,0.18904025852680206,1.7840205430984497,1.9860482215881348,1.1300500631332397,0.060370538383722305,0.21945735812187195,1.6591460704803467,1.4512248039245605,49.0,0.18655502796173096,0.1833372712135315,243.87042236328125,3.3349454402923584,1.6299927234649658,0.04982278123497963,0.5691414475440979,0.0024483143351972103,0.21005021035671234
subject_05,window11,11,1,stress,1,Task1,600.0,660.0,1.0,2083.5,163.5,0.0,0.0,0,0,0.029166666666666667,0,33,0,1.0,0.78125,1.0,1.828125,0.36032543556065816,0.8176432251930237,3.8429272174835205,0.9682126107347577,1,0.45171001815073275,0.43899421241092895,0.4921464093439726,0.31919991035568657,0.4921464093439726,0,5.075261116027832,1.0,0.5205976306681975,-0.27113283481157957,1,1.0,0,0.28790944814682007,0.29559817910194397,0.33679741621017456,0.35883623361587524,0.048887964338064194,0.07379516959190369,0.5068469047546387,0.0022501498460769653,0.027888797223567963,0.04655211418867111,4.561896800994873,24.37301254272461,2.1403844356536865,0.097992904484272,0.20090073347091675,4.581204414367676,25.00080680847168,2.647231340408325,0.12472236156463623,0.24674265086650848,4.909317493438721,28.013647079467773,56.0,0.5068469047546387,0.24115139245986938,225.24928283691406,3.4173123836517334,0.8802408576011658,0.05529721826314926,0.5554512739181519,0.005445726681500673,0.4388025403022766
subject_05,window12,12,1,stress,1,Task1,660.0,720.0,1.0,2083.5,163.5,0.0,0.0,0,0,0.025,0,22,0,1.0,0.6190476190476191,1.0,2.5952380952380953,0.4012356264181065,0.7940027713775635,2.615036964416504,0.8963001563314226,1,0.6018667830236389,0.6403072880983877,0.6137930049856622,0.15486123515785,0.6403072880983877,0,3.1012539863586426,1.0,0.46798973554447965,-0.31547611483679683,1,1.0,0,0.2016402930021286,0.26084986329078674,0.24237403273582458,0.37574440240859985,0.04073374345898628,0.12090754508972168,0.7668105363845825,5.145370960235596e-05,0.014369666576385498,0.02407776191830635,5.6883015632629395,31.228059768676758,1.679984450340271,0.04543972760438919,0.12487083673477173,4.770857334136963,24.1932373046875,2.4467949867248535,0.05078405514359474,0.15703317523002625,5.290084362030029,28.1912784576416,38.0,0.7668105363845825,0.08091655373573303,14900.0244140625,2.322108507156372,0.8257771134376526,0.058970630168914795,0.7048059105873108,0.01461863424628973,0.6185591816902161
subject_05,window13,13,1,stress,1,Task1,720.0,780.0,1.0,2083.5,163.5,0.0,0.0,0,0,0.029166666666666667,0,26,0,1.0,0.8,1.0,2.31,0.3340128688824876,0.5819234251976013,1.7528736591339111,0.7998957790515894,1,0.604086328188466,0.6431625832272054,0.5678700836953409,-0.4052353469351914,0.6431625832272054,0,2.313443660736084,1.0,0.5202038606647464,-0.3310159264799777,1,1.0,0,0.23344939947128296,0.5760600566864014,0.28682443499565125,0.7438852787017822,0.05337502062320709,0.16991768777370453,1.1692838668823242,0.001135852187871933,0.013559097424149513,0.034430310130119324,6.152852535247803,37.44620895385742,4.00617790222168,0.04328734427690506,0.08683671057224274,6.0970048904418945,37.00047302246094,5.175461769104004,0.0492842011153698,0.10629700124263763,6.160109519958496,37.55322265625,46.0,1.1692838668823242,0.14422449469566345,1029.424072265625,2.379859209060669,0.2826001048088074,0.0820082575082779,0.7515263557434082,0.028872020542621613,1.4591619968414307
subject_05,window14,14,0,normal,0,Rest2,780.0,840.0,1.0,2083.5,163.5,0.0,0.0,0,0,0.025,0,20,0,1.0,0.7368421052631579,1.0,2.986842105263158,0.43700901521526575,0.8184731006622314,2.352086067199707,0.8655549765502866,1,0.49170253706069794,0.47285873693550917,0.4383776784123715,-0.3086390909437472,0.49170253706069794,0,2.914505958557129,1.0,0.5258395466698429,-0.26507683945167826,1,1.0,0,0.23767469823360443,0.33440086245536804,0.2687302827835083,0.3610624074935913,0.031055595725774765,0.04303192347288132,0.2133997678756714,0.00019439682364463806,0.015157073736190796,0.031059034168720245,2.526386022567749,6.668561935424805,2.017010450363159,0.03438310697674751,0.10236750543117523,3.6536808013916016,15.206212043762207,2.075984001159668,0.03705180063843727,0.12467527389526367,3.3127658367156982,12.291662216186523,48.0,0.2133997678756714,0.1707625389099121,1097.6968994140625,3.1972317695617676,0.9867091774940491,0.03885531798005104,0.6125439405441284,0.0018517463468015194,0.13517743349075317
subject_05,window15,15,0,normal,0,Rest2,840.0,900.0,1.0,2083.5,163.5,0.0,0.0,0,0,0.029166666666666667,0,27,0,1.0,0.8461538461538461,1.0,2.230769230769231,0.303908297402541,0.8048644065856934,1.5064030885696411,0.7592496091714435,1,0.6699143599075906,0.6300561618596104,0.6658582705000886,-0.47490471717575244,0.6699143599075906,0,2.069305896759033,1.0,0.5296340276823007,-0.2689606701567875,1,1.0,0,0.1731775999069214,0.14983846247196198,0.19559355080127716,0.16754911839962006,0.02241595648229122,0.02858842723071575,0.15001949667930603,0.0003330409526824951,0.011563673615455627,0.022251546382904053,2.6867172718048096,8.298328399658203,0.6445288062095642,0.034721534699201584,0.10779827833175659,1.6621674299240112,1.9541831016540527,0.6651512980461121,0.03596732020378113,0.12584052979946136,1.592890977859497,1.459463357925415,39.0,0.15001949667930603,0.08814531564712524,450.4400634765625,3.089322328567505,1.674190878868103,0.02612968347966671,0.5678921341896057,0.0008172981906682253,0.05147115886211395
subject_05,window16,16,1,stress,1,Task2,900.0,960.0,1.0,2083.5,163.5,0.0,0.0,0,0,0.029166666666666667,0,29,0,1.0,0.75,1.0,2.0535714285714284,0.6068452416447386,0.5058282613754272,2.1579201221466064,0.7686294945284002,1,0.5497926157674767,0.5550134451391208,0.5807855346783711,-0.3523956080762572,0.5807855346783711,0,2.5630035400390625,1.0,0.5820535724934216,-0.29683162424495846,1,1.0,0,0.24149326980113983,0.21801474690437317,0.27699989080429077,0.2505060136318207,0.03550662100315094,0.049464281648397446,0.2678157389163971,0.0008393228054046631,0.01920497417449951,0.03658411651849747,2.781954765319824,8.816388130187988,1.3426388502120972,0.04852505773305893,0.1680416762828827,2.6677322387695312,10.268805503845215,1.5227391719818115,0.0597018264234066,0.1910371482372284,2.594250202178955,9.585737228393555,51.0,0.2678157389163971,0.18010032176971436,319.0816955566406,3.258047342300415,1.2983121871948242,0.04415983334183693,0.609660267829895,0.002446715021505952,0.1890791952610016
subject_05,window17,17,1,stress,1,Task2,960.0,1020.0,1.0,2083.5,163.5,0.0,0.0,0,0,0.025,0,33,0,1.0,0.90625,1.0,1.84375,0.4362813028627035,0.726121187210083,3.4294936656951904,0.9838457529963522,1,0.5619559741464956,0.6989113130798184,0.624223963170236,-0.32452995969267273,0.6989113130798184,0,4.2108283042907715,1.0,0.5933843908588111,-0.23752437748180344,1,1.0,0,0.253407746553421,0.1315375417470932,0.29076915979385376,0.14215534925460815,0.03736140578985214,0.02788507007062435,0.0997123122215271,8.821487426757812e-05,0.0325179249048233,0.04017888009548187,0.5262802839279175,-0.7333935499191284,0.6675565242767334,0.1165945827960968,0.19966712594032288,1.4440593719482422,1.6428351402282715,0.7566862106323242,0.12436274439096451,0.24600236117839813,1.3324995040893555,1.4737533330917358,43.0,0.0997123122215271,0.09005111455917358,1130.206298828125,3.4568166732788086,1.753072738647461,0.03221473842859268,0.42109712958335876,0.0007775771082378924,0.09345842152833939
subject_05,window18,18,1,stress,1,Task2,1020.0,1080.0,1.0,2083.5,163.5,0.0,0.0,0,0,0.029166666666666667,0,24,0,1.0,0.8695652173913043,1.0,2.510869565217391,0.4217844073859113,0.7835230827331543,4.149853706359863,0.986451276706618,1,0.7330770031625465,0.42112269262397456,0.6964949602285377,-0.43438080191276807,0.7330770031625465,0,4.9995222091674805,1.0,0.5743614091722952,-0.23780356225284227,1,1.0,0,0.17201843857765198,0.1322857290506363,0.20368607342243195,0.1577073484659195,0.03166763484477997,0.03910412639379501,0.20333117246627808,0.00035753846168518066,0.01756967604160309,0.02546015940606594,2.3874030113220215,6.383283615112305,0.8721691966056824,0.05418515205383301,0.14307978749275208,3.343017339706421,14.229474067687988,1.0755003690719604,0.06011930853128433,0.16898727416992188,3.685086965560913,17.20696449279785,47.0,0.20333117246627808,0.12791194021701813,568.6814575195312,3.2918267250061035,1.2537627220153809,0.03628440946340561,0.5607050061225891,0.0015291327144950628,0.11900267750024796
subject_05,window19,19,1,stress,1,Task2,1080.0,1140.0,1.0,2083.5,163.5,0.0,0.0,0,0,0.03333333333333333,0,30,0,1.0,0.9655172413793104,1.0,1.9310344827586208,0.4022934050210012,0.8743427395820618,3.964003562927246,0.986451276706618,1,0.5064803093180243,0.3255595720780899,0.5124511723769745,0.27516343494374107,0.5124511723769745,0,4.792682647705078,1.0,0.6068949180580246,-0.19118579143544112,1,1.0,0,0.2223074734210968,0.25611475110054016,0.26722314953804016,0.33499255776405334,0.04491566866636276,0.08715718239545822,0.6072938442230225,0.0003213435411453247,0.02677030861377716,0.03733979910612106,5.414556980133057,31.773530960083008,1.6741931438446045,0.03744497150182724,0.14530044794082642,4.085699081420898,18.985671997070312,2.281486988067627,0.03865279629826546,0.17499902844429016,4.589521884918213,23.78092384338379,50.0,0.6072938442230225,0.1552385687828064,1889.7998046875,3.092843770980835,0.9802245497703552,0.05655078589916229,0.6169313788414001,0.0075963749550282955,0.4806896150112152
subject_05,window20,20,1,stress,1,Task2,1140.0,1200.0,1.0,2083.5,163.5,0.0,0.0,0,0,0.025,0,30,0,1.0,0.8275862068965517,1.0,1.8793103448275863,0.5300742877573187,0.7785952985286713,4.682105541229248,0.9786347055758208,1,0.4572959221149837,-0.4306472278519251,0.49953210803062104,-0.45712974350965857,0.49953210803062104,0,5.577556610107422,1.0,0.5900567690858164,-0.22455674135953707,1,1.0,0,0.25669974088668823,0.33005285263061523,0.30338627099990845,0.3818225562572479,0.04668651893734932,0.06862813234329224,0.46026861667633057,0.004528060555458069,0.0286959707736969,0.03579244762659073,4.967378616333008,27.037736892700195,1.7738839387893677,0.08528737723827362,0.17630168795585632,3.7681617736816406,13.614818572998047,2.2341525554656982,0.09555783867835999,0.2051258534193039,3.9570796489715576,15.594043731689453,44.0,0.46026861667633057,0.10777217149734497,101.64784240722656,3.2510154247283936,0.6378222107887268,0.048291586339473724,0.5054355263710022,0.004709820728749037,0.30313587188720703
subject_05,window21,21,0,normal,0,Rest3,1200.0,1260.0,1.0,2083.5,163.5,0.0,0.0,0,0,0.025,0,30,0,1.0,0.6896551724137931,1.0,2.0086206896551726,0.392894121000321,0.8146411776542664,2.8183374404907227,0.9025534132360604,1,0.44873252684347914,0.48048997122154347,0.39895057549666907,-0.29087623689351166,0.48048997122154347,0,3.6113078594207764,1.0,0.49373030526561357,-0.2912196236122152,1,1.0,0,0.253726989030838,0.4582739770412445,0.2866332530975342,0.47323107719421387,0.03290627896785736,0.02993212267756462,0.1699894666671753,0.00018860772252082825,0.02814491093158722,0.03293425217270851,2.1885881423950195,7.290507793426514,3.112483263015747,0.028354357928037643,0.14808757603168488,5.322070121765137,30.009979248046875,3.2026686668395996,0.03223184868693352,0.17651119828224182,5.156419277191162,28.490737915039062,46.0,0.1699894666671753,0.09018540382385254,901.238037109375,3.4733142852783203,0.5792810320854187,0.03030821494758129,0.4505119323730469,0.0008959319093264639,0.09102272987365723
subject_05,window22,22,0,normal,0,Rest3,1260.0,1320.0,1.0,2083.5,163.5,0.0,0.0,0,0,0.025,0,34,0,1.0,0.8181818181818182,1.0,1.7424242424242424,0.35533986202213186,0.7900421917438507,0.7392350435256958,0.6274101094319958,1,0.6641157900961978,0.7051291144995688,0.6327037628886392,0.5867849658673866,0.7051291144995688,0,1.1237874031066895,1.0,0.5338746858793669,-0.26819994110395884,1,1.0,0,0.28944000601768494,0.3730792999267578,0.3294016718864441,0.43016931414604187,0.03996166214346886,0.06599778681993484,0.4700319766998291,0.00037961453199386597,0.019738323986530304,0.04658450931310654,5.062979221343994,29.93402862548828,2.6346547603607178,0.09004000574350357,0.20856942236423492,4.90521764755249,26.338586807250977,3.104686737060547,0.10098665952682495,0.23370587825775146,5.175266742706299,29.166229248046875,55.0,0.4700319766998291,0.1389583945274353,1238.149658203125,3.2967162132263184,0.514869749546051,0.04840273782610893,0.5946034789085388,0.004355707671493292,0.32739531993865967
subject_05,window23,23,1,stress,1,Task3,1320.0,1380.0,1.0,2083.5,163.5,0.0,0.0,0,0,0.029166666666666667,0,36,0,1.0,0.8571428571428571,1.0,1.6571428571428573,0.320763759099162,0.8024552464485168,2.1016201972961426,0.7978113600833767,1,0.5981217152697178,0.6522149324608029,0.6211082917723386,-0.436524070903663,0.6522149324608029,0,2.6229500770568848,1.0,0.5390862705868914,-0.2620523914702231,1,1.0,0,0.21181224286556244,0.12523645162582397,0.24989044666290283,0.14785857498645782,0.038078200072050095,0.03754671663045883,0.1845967173576355,0.0006535202264785767,0.024610653519630432,0.03701205551624298,1.5705077648162842,2.9819324016571045,0.6034068465232849,0.03126883506774902,0.15212248265743256,1.1527494192123413,0.9301244020462036,0.7277512550354004,0.032189808785915375,0.20205968618392944,1.2111550569534302,1.2672457695007324,47.0,0.1845967173576355,0.1068030595779419,282.46087646484375,3.40348482131958,1.778749942779541,0.0395592600107193,0.5083955526351929,0.0014097557868808508,0.13440614938735962
subject_05,window24,24,1,stress,1,Task3,1380.0,1440.0,1.0,2083.5,163.5,0.0,0.0,0,0,0.025,0,32,0,1.0,0.8709677419354839,1.0,1.8225806451612903,0.4873191627165129,0.8727858662605286,3.7045211791992188,0.9739447628973423,1,0.4706088854490366,-0.001367804782960344,0.40973712140536456,0.19450249890907512,0.4706088854490366,0,4.453128814697266,1.0,0.5945828455891474,-0.19868342017509444,1,1.0,0,0.2546323537826538,0.1810062974691391,0.2957392632961273,0.20675213634967804,0.04110690951347351,0.0632728561758995,0.40188881754875183,0.0006599277257919312,0.025637779384851456,0.0359310507774353,4.102536678314209,19.653839111328125,0.9031588435173035,0.05416550487279892,0.19267487525939941,2.2546370029449463,5.133143424987793,0.97745281457901,0.06019303575158119,0.2245464324951172,2.0581977367401123,3.7809808254241943,48.0,0.40188881754875183,0.18130743503570557,608.9799194335938,3.2013697624206543,1.6412516832351685,0.04934902489185333,0.5877469182014465,0.004003454465419054,0.2732751667499542
subject_05,window25,25,1,stress,1,Task3,1440.0,1500.0,1.0,2083.5,163.5,0.0,0.0,0,0,0.029166666666666667,0,17,0,1.0,0.4375,1.0,3.5625,0.20788496899624895,0.9588327407836914,1.560743808746338,0.7592496091714435,1,0.915791288055815,0.9105625658332241,0.9010059614082883,0.48509199437502953,0.915791288055815,1,2.370666027069092,1.0,0.33736549069887467,-0.37707057255501486,1,1.0,0,0.18625304102897644,0.7676582336425781,0.21254317462444305,0.8650265336036682,0.026290131732821465,0.0978630855679512,0.6476211547851562,7.102824747562408e-05,0.0061224112287163734,0.013151485472917557,6.085811138153076,35.689334869384766,5.084370136260986,0.0193448755890131,0.045212291181087494,6.179527759552002,36.46464157104492,5.731991291046143,0.023430658504366875,0.05249674245715141,6.179619789123535,36.46646499633789,42.0,0.6476211547851562,0.053758278489112854,9116.513671875,1.9902111291885376,0.11251594126224518,0.04250858724117279,0.7892025709152222,0.009577183052897453,0.43127086758613586
subject_05,window26,26,0,normal,0,Rest4,1500.0,1560.0,1.0,2083.5,163.5,0.0,0.0,0,0,0.029166666666666667,0,27,0,1.0,0.8846153846153846,1.0,2.230769230769231,0.4018326985750419,0.9161787629127502,0.9105179309844971,0.5930171964564878,1,0.4872909845035607,0.4885536571078865,0.5025833534222448,-0.4270417321903755,0.5025833534222448,0,2.0895872116088867,1.0,0.5743959634186665,-0.20511251924343665,1,1.0,0,0.20486904680728912,0.2669375240802765,0.23972667753696442,0.3112620711326599,0.03485763072967529,0.0522201806306839,0.23898351192474365,2.4549663066864014e-05,0.015850352123379707,0.02833651192486286,2.504889488220215,5.8630475997924805,1.0618104934692383,0.033991489559412,0.08993072807788849,2.1821885108947754,3.4666099548339844,1.2601524591445923,0.037769824266433716,0.12143410742282867,2.1918952465057373,3.5321907997131348,40.0,0.23898351192474365,0.198341965675354,9730.732421875,2.9413154125213623,1.1619927883148193,0.04542524367570877,0.6352929472923279,0.0027269471902400255,0.15768006443977356
subject_05,window27,27,0,normal,0,Rest4,1560.0,1620.0,1.0,2083.5,163.5,0.0,0.0,0,0,0.025,0,26,0,1.0,0.84,1.0,2.27,0.3714222122390805,0.7624533772468567,0.7482151985168457,0.6274101094319958,1,0.5809551696646584,0.6435098870736985,0.6456654163564258,-0.4140506977033674,0.6456654163564258,0,1.079336404800415,1.0,0.5474266636717242,-0.26453110262851576,1,1.0,0,0.2058333307504654,0.1726105958223343,0.2392217218875885,0.18697784841060638,0.03338839113712311,0.03469375520944595,0.18479591608047485,0.00017321109771728516,0.02405240386724472,0.037598155438899994,2.111307144165039,5.777205944061279,1.0813065767288208,0.02807554043829441,0.14786870777606964,3.082514762878418,11.929500579833984,1.1280553340911865,0.03288569301366806,0.18106061220169067,2.860330104827881,9.929346084594727,48.0,0.18479591608047485,0.1079123318195343,1066.821044921875,3.42573881149292,1.3940426111221313,0.03473830968141556,0.5093775987625122,0.0012036567786708474,0.11128518730401993
subject_05,window28,28,1,stress,1,Task4,1620.0,1680.0,1.0,2083.5,163.5,0.0,0.0,0,0,0.03333333333333333,0,26,0,1.0,0.84,1.0,2.22,0.4659273831848779,0.6790257692337036,0.7576726675033569,0.6889004689942678,1,0.4202871386766394,0.4142028076097692,0.4380545247418569,-0.2141045454336284,0.4380545247418569,0,1.0655722618103027,1.0,0.5757782149554634,-0.2617617118953546,1,1.0,0,0.22878360748291016,0.14043092727661133,0.2713484466075897,0.15674035251140594,0.042564861476421356,0.03628293797373772,0.16015028953552246,0.000558018684387207,0.03278980776667595,0.034030765295028687,1.346035122871399,1.4195665121078491,0.6314564347267151,0.09237538278102875,0.1983601152896881,1.4869716167449951,1.3371988534927368,0.7227623462677002,0.09520678967237473,0.24310293793678284,1.371673345565796,1.087018370628357,42.0,0.16015028953552246,0.12920862436294556,286.992919921875,3.403407573699951,1.738678216934204,0.0388442724943161,0.4454309344291687,0.0013164517004042864,0.1313851922750473
subject_05,window29,29,1,stress,1,Task4,1680.0,1740.0,1.0,2083.5,163.5,0.0,0.0,0,0,0.025,0,27,0,1.0,0.8076923076923077,1.0,2.1538461538461537,0.5901901080425724,0.5646871626377106,0.7044557929039001,0.7165190203230849,1,0.5797414258794108,-0.015174532250711534,0.7196993999323638,0.591983388689914,0.7196993999323638,0,1.1789097785949707,1.0,0.6001339554896948,-0.26897299002223685,1,1.0,0,0.18398946523666382,0.1442287415266037,0.21257323026657104,0.16093650460243225,0.028583772480487823,0.02864694967865944,0.1431507170200348,0.00031951069831848145,0.015685386955738068,0.0274747833609581,1.7805299758911133,3.6902968883514404,0.8266715407371521,0.05203315615653992,0.13847622275352478,2.2088773250579834,6.325680732727051,0.9176498055458069,0.05433662235736847,0.15220734477043152,2.1350042819976807,5.865286350250244,47.0,0.1431507170200348,0.09097826480865479,448.01702880859375,3.422739028930664,1.4665216207504272,0.029377901926636696,0.5029574036598206,0.0008206477505154908,0.07697094976902008
subject_05,window30,30,0,normal,0,Rest5,1783.5,1843.5,1.0,2083.5,163.5,0.0,0.0,0,0,0.0375,0,19,0,1.0,0.7222222222222222,1.0,3.1805555555555554,0.5529774622441191,0.7722108364105225,2.126742362976074,0.784783741532048,1,0.5460432558924495,0.5895565457292831,0.579906072336685,-0.3440396970257905,0.5895565457292831,0,3.3202919960021973,1.0,0.5547821275621246,-0.25203625866967294,1,1.0,0,0.19786180555820465,0.11608713120222092,0.22985804080963135,0.1289053112268448,0.0319962278008461,0.03243931755423546,0.1570347547531128,0.00042204558849334717,0.021749425679445267,0.03950361907482147,1.689967155456543,3.0119752883911133,0.540865957736969,0.04860229045152664,0.16698645055294037,1.2450534105300903,1.0971684455871582,0.564367949962616,0.07580461353063583,0.19898207485675812,1.0639663934707642,0.2974591851234436,50.0,0.1570347547531128,0.1092166006565094,372.0712585449219,3.471161127090454,1.9350628852844238,0.03343801572918892,0.5120799541473389,0.0010523092932999134,0.10380339622497559
subject_05,window31,31,0,normal,0,Rest5,1843.5,1903.5,1.0,2083.5,163.5,0.0,0.0,0,0,0.03333333333333333,0,19,0,1.0,0.8888888888888888,1.0,3.1805555555555554,0.8308956165817194,0.5727773904800415,1.6897680759429932,0.6972381448671183,1,0.8174298330295462,0.2709189485821182,0.7868133752619005,-0.5918996016045127,0.8174298330295462,0,2.722076177597046,1.0,0.7048242405300714,-0.1824150815678931,1,1.0,0,0.20542243123054504,0.10919426381587982,0.2384273260831833,0.13224050402641296,0.03300490602850914,0.034871090203523636,0.13361430168151855,3.153085708618164e-05,0.01835542917251587,0.041105955839157104,1.3220781087875366,0.8991779685020447,0.4974055886268616,0.04807177931070328,0.16621100902557373,0.7423113584518433,-0.15134631097316742,0.5682090520858765,0.05074048414826393,0.18144454061985016,0.7557641863822937,-0.3438880443572998,49.0,0.13361430168151855,0.131169855594635,4236.2294921875,3.3806302547454834,2.0520787239074707,0.03680852800607681,0.5462420582771301,0.0012159929610788822,0.11296051740646362
subject_05,window32,32,1,stress,1,Task5,1903.5,1963.5,1.0,2083.5,163.5,0.0,0.0,0,0,0.03333333333333333,0,17,0,1.0,0.6875,1.0,3.578125,0.84353751952947,0.6309033632278442,2.432267665863037,0.897342365815529,1,0.535210993409482,0.07194086664335157,0.624907981632289,-0.22088364468682317,0.624907981632289,0,3.0687193870544434,1.0,0.6280612558588411,-0.22513977931067153,1,1.0,0,0.17056098580360413,0.3163120746612549,0.1934247612953186,0.32481837272644043,0.02286377176642418,0.02261917106807232,0.07738780975341797,0.0005760639905929565,0.01566256582736969,0.0262400321662426,1.1860312223434448,0.2920580506324768,1.999126672744751,0.04108724743127823,0.0917830839753151,5.359074115753174,28.034189224243164,2.0542399883270264,0.04507626220583916,0.11509919166564941,5.218167781829834,26.939987182617188,36.0,0.07738780975341797,0.0772479921579361,134.33657836914062,3.132783889770508,0.3398788273334503,0.024435829371213913,0.5195349454879761,0.0005116268876008689,0.03723764419555664
subject_05,window33,33,0,normal,0,Rest6,1963.5,2023.5,1.0,2083.5,163.5,0.0,0.0,0,0,0.0375,0,20,0,1.0,0.5789473684210527,1.0,3.039473684210526,0.7150305605452525,0.5682979822158813,1.4924790859222412,0.7175612298071913,1,0.6689168050642635,0.6802537780294382,0.6122678566268808,-0.3777509973218423,0.6802537780294382,0,2.431156635284424,1.0,0.5460881155319969,-0.3054836537834007,1,1.0,0,0.17638400197029114,0.2373264580965042,0.19936783611774445,0.24110348522663116,0.02298383228480816,0.02114369347691536,0.09383577108383179,0.0005975887179374695,0.01576004922389984,0.024768486618995667,1.3192895650863647,1.3350058794021606,1.6329474449157715,0.034194543957710266,0.11030502617359161,5.153156280517578,28.598369598388672,1.6506068706512451,0.0417872779071331,0.13250453770160675,4.878673076629639,26.284330368041992,45.0,0.09383577108383179,0.06972736120223999,157.02137756347656,3.4204132556915283,0.7292497158050537,0.02268805168569088,0.48259735107421875,0.0004470557614695281,0.04388905689120293
subject_05,window34,34,0,normal,0,Rest6,2023.5,2083.5,1.0,2083.5,163.5,0.0,0.0,0,0,0.029166666666666667,0,34,0,1.0,0.7575757575757576,1.0,1.7803030303030303,0.2693471689898502,0.7330531477928162,0.41086405515670776,0.5341323606044815,1,0.6494308987655398,0.6396697171922738,0.6270947095415179,0.19737679569191283,0.6494308987655398,0,0.6207694411277771,0.6207694411277771,0.5217575096144804,0.057103365340616774,1,1.0,0,0.1992630660533905,0.1451401561498642,0.23701685667037964,0.16035190224647522,0.03775379806756973,0.0455511212348938,0.25723639130592346,4.06801700592041e-05,0.022794216871261597,0.038218289613723755,2.972614288330078,10.937850952148438,0.838377833366394,0.05587272346019745,0.1357419639825821,2.4174509048461914,7.248429775238037,0.8555024266242981,0.05664627254009247,0.1805274337530136,1.8249984979629517,3.811086893081665,41.0,0.25723639130592346,0.1381038874387741,6321.83154296875,3.1960608959198,1.4490376710891724,0.04143395274877548,0.5353550314903259,0.0020749045070260763,0.14351040124893188
subject_07,window1,1,0,normal,0,Rest1,0.0,60.0,1.0,2143.5,223.5,0.0,0.0,0,0,0.029166666666666667,0,11,0,0.9,0.7,0.9,5.45,0.5784261440595649,0.8886104822158813,1481231.375,0.7425742574257426,1,0.6103149130206225,0.6106477937317862,0.61048490068418,0.6099389584175142,0.6106477937317862,0,32435234.0,1.0,0.5335278432178695,-0.2432408434311384,1,1.0,0,0.05244944617152214,0.0653703436255455,0.05945974215865135,0.07042603939771652,0.007010295521467924,0.0074380552396178246,0.03269132971763611,1.0935589671134949e-05,0.003658376634120941,0.008838072419166565,1.7452579736709595,2.909457206726074,0.3634694516658783,0.011187286116182804,0.03156450390815735,3.5589535236358643,13.268631935119629,0.3961607813835144,0.011706794612109661,0.03945225477218628,3.5372631549835205,13.381254196166992,33.0,0.03269132971763611,0.025019660592079163,2986.71240234375,3.0227859020233154,0.9674350619316101,0.007612719666212797,0.5265135765075684,5.5324660934275016e-05,0.003447473980486393
subject_07,window2,2,0,normal,0,Rest1,60.0,120.0,1.0,2143.5,223.5,0.0,0.0,0,0,0.029166666666666667,0,18,0,1.0,0.7058823529411765,1.0,3.264705882352941,0.3905343615970377,0.8214006423950195,0.4925350844860077,0.6711829077644607,1,0.7583193982591685,0.7929522709378625,0.8108603725405853,0.6008784182736394,0.8108603725405853,0,0.7281550168991089,0.7281550168991089,0.526697747965671,-0.013406560018741631,1,1.0,0,0.08357729762792587,0.1322302669286728,0.09684202075004578,0.1567731499671936,0.01326471846550703,0.028198175132274628,0.17291539907455444,0.0003590881824493408,0.004415765404701233,0.011292707175016403,4.5468010902404785,21.784208297729492,0.81173175573349,0.015569460578262806,0.033227138221263885,4.216972351074219,19.225473403930664,0.9846471548080444,0.016272244974970818,0.038325753062963486,4.436156272888184,21.375024795532227,43.0,0.17291539907455444,0.08300250768661499,481.52679443359375,2.7599527835845947,0.7535316944122314,0.01856612041592598,0.6835557818412781,0.0007951370789669454,0.04175686091184616
subject_07,window3,3,0,normal,0,Rest1,120.0,180.0,1.0,2143.5,223.5,0.0,0.0,0,0,0.041666666666666664,0,20,0,1.0,0.7368421052631579,1.0,2.6315789473684212,0.5813204139178236,0.6298195123672485,0.43956083059310913,0.6268890046899427,1,0.5456905963698623,0.5555994267234933,0.5483969045344927,0.566325809954362,0.566325809954362,0,0.6690884232521057,0.6690884232521057,0.6022241239553997,0.05474918989810962,1,1.0,0,0.17756929993629456,0.5668792724609375,0.19583158195018768,0.6132256388664246,0.018262280151247978,0.04848216101527214,0.30767822265625,0.00017054006457328796,0.006300542503595352,0.010682288557291031,5.337713718414307,28.792007446289062,3.6987690925598145,0.017127593979239464,0.06665389239788055,5.983753681182861,34.21875,4.0064473152160645,0.017561478540301323,0.07710359990596771,5.990981101989746,34.27873992919922,40.0,0.30767822265625,0.07115796953439713,1804.03466796875,2.4345285892486572,0.11690685898065567,0.0274027232080698,0.7314983606338501,0.0023505198769271374,0.10736123472452164
subject_07,window4,4,1,stress,1,Task1,180.0,240.0,1.0,2143.5,223.5,0.0,0.0,0,0,0.029166666666666667,0,27,0,1.0,0.7692307692307693,1.0,2.25,0.4976992901954647,0.6926919221878052,3.057025909423828,0.9088066701406983,1,0.5377548225023879,0.537662142941121,0.5664625374612817,-0.5174778183680648,0.5664625374612817,0,3.473059892654419,1.0,0.5570020947509472,-0.2716329661349517,1,1.0,0,0.18918439745903015,0.1721857190132141,0.21524566411972046,0.19587711989879608,0.02606125921010971,0.04279240593314171,0.280060350894928,0.0002416670322418213,0.01648125797510147,0.01975972205400467,4.493756294250488,22.671159744262695,0.8064655661582947,0.04500724747776985,0.13112470507621765,2.24828839302063,4.546818733215332,1.0865259170532227,0.04946276545524597,0.14663168787956238,2.568850517272949,7.110638618469238,50.0,0.280060350894928,0.1323145031929016,1158.8206787109375,3.2212884426116943,1.51382315158844,0.030801091343164444,0.5791176557540894,0.001831189845688641,0.12551894783973694
subject_07,window5,5,1,stress,1,Task1,240.0,300.0,1.0,2143.5,223.5,0.0,0.0,0,0,0.025,0,23,0,1.0,0.6818181818181818,1.0,2.5681818181818183,0.25686318761273125,0.930777907371521,2.697310447692871,0.9656070870244919,1,0.6888121510009174,0.6982890294667744,0.6547638071632537,-0.6685375497485182,0.6982890294667744,0,3.2237789630889893,1.0,0.4497862290110921,-0.2985442717084824,1,1.0,0,0.2511197626590729,0.4459112882614136,0.2838653028011322,0.4944700002670288,0.03274554759263992,0.061339739710092545,0.3345069885253906,0.00013487786054611206,0.012125574052333832,0.027187928557395935,3.4470839500427246,12.424478530883789,2.354998826980591,0.03281392529606819,0.10464577376842499,3.5194528102874756,11.8534517288208,2.501643419265747,0.03692124783992767,0.1223793774843216,3.4185917377471924,11.04694938659668,51.0,0.3345069885253906,0.25888699293136597,2479.889404296875,2.9639315605163574,0.6959567666053772,0.04665733873844147,0.6984535455703735,0.003762563457712531,0.24657656252384186
