subject,window,window_index,status,status_name,phase,t_start,t_end,major_ratio,stress_ratio,rest_ratio,covered_ratio,bvp_missing_ratio,acc_missing_ratio,missing_flag,flatline_flag,clipping_ratio,clipping_flag,n_peaks,peak_sparse_flag,ibi_pass_ratio,valid_beat_ratio,ibi_plausibility,ibi_mean_sec,median_template_corr,notch_foot_peak_detectability,acc_diff_mean,acc_diff_exceed_ratio,acc_diff_flag,psd_corr_x,psd_corr_y,psd_corr_z,psd_corr_mag,psd_corr_max,psd_corr_flag,motion_score_raw,motion_score,SQI_stress_basic,SQI_stress_morph,hard_reject,motion_threshold_subject_p80,qc_relaxed_pass,TPV0,TPV1,TPV2,TPV3,TPV4,TPV5,TPV6,TPV7,TPV8,TPV9,TPV10,TPV11,TPV12,TPV13,TPV14,TPV15,TPV16,TPV17,TPV18,TPV19,TPV20,TPV21,TPV22,TPV23,TPV24,TPV25,TPV26,TPV27,TPV28,TPV29,TPV30,TPV31,TPV32
f01,window1,1,1,stress,TMCT,2013-06-12 16:25:46,2013-06-12 16:26:46,1.0,1.0,0.0,1.0,0.0,0.0,0,0,0.020572916666666666,0,69,0,1.0,0.8235294117647058,1.0,0.8619025735294118,0.8719772314190883,0.7416080832481384,0.640187680721283,0.5586242834809797,1,0.7620679132516206,0.802194441182971,0.8738360667536674,0.7626292087341983,0.8738360667536674,0,0.9814902544021606,0.9814902544021606,0.6928559086913927,-0.13103510220594217,1,1.0,0,0.031038828194141388,0.06224836781620979,0.0363096222281456,0.06897440552711487,0.005270793102681637,0.009708356112241745,0.1277903914451599,7.711350917816162e-07,0.0024147804360836744,0.004818150773644447,5.770075798034668,48.341514587402344,0.9215580821037292,0.0011847653659060597,0.01763448677957058,8.24551773071289,84.82539367675781,1.0176540613174438,0.0012095971032977104,0.02095603197813034,8.234580993652344,86.00297546386719,912.0,0.1277903914451599,0.0960959792137146,165717.25,0.11129449307918549,5.993682861328125,0.2169484794139862,0.004816505592316389,0.006791300140321255,0.6435325145721436,9.425218013348058e-05
f01,window2,2,1,stress,TMCT,2013-06-12 16:26:16,2013-06-12 16:27:16,1.0,1.0,0.0,1.0,0.0,0.0,0,0,0.020833333333333332,0,76,0,1.0,0.7733333333333333,1.0,0.7883333333333333,0.8471623514169421,0.8384082317352295,0.5975160002708435,0.501823866597186,1,0.853860418802664,0.8751220952286968,0.8829903586098549,0.8605213344245577,0.8829903586098549,0,0.8014470338821411,0.8014470338821411,0.6833373353702019,0.051945611905901856,1,1.0,0,0.03328678756952286,0.06487001478672028,0.03890794888138771,0.07206807285547256,0.005621162708848715,0.010272904299199581,0.12036341428756714,4.620291292667389e-06,0.0024317498318850994,0.0052123889327049255,5.608521938323975,43.4622688293457,0.8321718573570251,0.0022084983065724373,0.017513591796159744,7.7896013259887695,78.02180480957031,0.9509334564208984,0.002656862372532487,0.02105565369129181,7.584991455078125,75.08331298828125,946.0,0.12036341428756714,0.10699969530105591,26051.044921875,0.12972500920295715,6.042403221130371,0.34806424379348755,0.004587638191878796,0.007191284094005823,0.6389855146408081,0.00010553256288403645
f01,window3,3,1,stress,TMCT,2013-06-12 16:26:46,2013-06-12 16:27:46,1.0,1.0,0.0,1.0,0.0,0.0,0,0,0.02265625,0,78,0,1.0,0.8571428571428571,1.0,0.7583198051948052,0.9213938733842013,0.9278640747070312,0.3829745948314667,0.45440333507034913,1,0.8005583501135112,0.8388610334950379,0.8313440729713139,0.8668631869150146,0.8668631869150146,0,0.5657172203063965,0.5657172203063965,0.7627035828417636,0.3537401238592688,1,1.0,0,0.033232174813747406,0.05097724497318268,0.03991827741265297,0.056939370930194855,0.006686103995889425,0.010318104177713394,0.14939656853675842,9.592622518539429e-07,0.003646525554358959,0.006815996021032333,5.8733086585998535,59.319007873535156,0.9423434734344482,0.003939556889235973,0.025031298398971558,11.417651176452637,164.5100860595703,1.0634859800338745,0.004597866907715797,0.0306857842952013,10.918920516967773,156.62196350097656,928.0,0.14939656853675842,0.12114250659942627,155741.125,0.1402832269668579,6.169295310974121,0.12538976967334747,0.003643875475972891,0.007963266223669052,0.5948669910430908,0.00010646328155416995
f01,window4,4,1,stress,TMCT,2013-06-12 16:27:16,2013-06-12 16:28:16,1.0,1.0,0.0,1.0,0.0,0.0,0,0,0.023177083333333334,0,74,0,1.0,0.9178082191780822,1.0,0.806720890410959,0.9116342636360533,0.9896571934223175,0.35737520456314087,0.4966128191766545,1,0.5025049192415015,0.5088004736315829,-0.4889558553741753,-0.7720946762109148,0.5088004736315829,0,0.395365446805954,0.395365446805954,0.8010770220814535,0.5552998832120632,1,1.0,0,0.03101268969476223,0.037116821855306625,0.03670220077037811,0.041346702724695206,0.0056895106099545956,0.009596429765224457,0.14790505170822144,3.335997462272644e-06,0.0029237261041998863,0.005445428192615509,6.759706497192383,71.95040893554688,0.5480709671974182,0.004922399763017893,0.022140244022011757,7.185074806213379,69.56678009033203,0.5749269127845764,0.005124622490257025,0.026872484013438225,6.53395938873291,58.924835205078125,894.0,0.14790505170822144,0.0993371531367302,44336.08203125,0.1112690195441246,6.099002838134766,0.3148970305919647,0.004300802014768124,0.006790452636778355,0.5960844159126282,9.209146082866937e-05
f01,window5,5,1,stress,TMCT,2013-06-12 16:27:46,2013-06-12 16:28:46,1.0,1.0,0.0,1.0,0.0,0.0,0,0,0.025,0,72,0,1.0,0.9154929577464789,1.0,0.8411091549295775,0.873775977381443,0.9326820969581604,0.5814281702041626,0.5799895779051589,1,0.7669348540994028,0.7789776881084447,0.03680188476749351,-0.036824620729234175,0.7789776881084447,0,1.0637516975402832,1.0,0.7283299763130245,-0.07373759409115554,1,1.0,0,0.029523108154535294,0.024539435282349586,0.03578423708677292,0.029829049482941628,0.006261130794882774,0.009097842499613762,0.09086050093173981,3.141351044178009e-06,0.003516409546136856,0.006125014275312424,4.227947235107422,26.18075942993164,0.30944016575813293,0.004886489361524582,0.023163657635450363,4.6049275398254395,36.75311279296875,0.3734205365180969,0.004996385890990496,0.027671504765748978,4.234286785125732,32.45165252685547,884.0,0.09086050093173981,0.08836573362350464,28924.021484375,0.1078236922621727,6.143435955047607,0.7572020292282104,0.0035196873359382153,0.007368036545813084,0.5877293944358826,8.277074084617198e-05
f01,window6,6,1,stress,TMCT,2013-06-12 16:28:16,2013-06-12 16:29:16,1.0,1.0,0.0,1.0,0.0,0.0,0,0,0.023177083333333334,0,70,0,1.0,0.9130434782608695,1.0,0.8625452898550725,0.8740685464912974,0.8891113698482513,0.6257558465003967,0.594059405940594,1,0.8137909614154814,0.7970963074535877,0.17831100909260145,-0.25191572885580604,0.8137909614154814,0,1.1550880670547485,1.0,0.727437955251737,-0.0852919774368519,1,1.0,0,0.029378153383731842,0.024595661088824272,0.035437460988759995,0.029250871390104294,0.006059309002012014,0.008960029110312462,0.09598559886217117,4.998873919248581e-06,0.0031610028818249702,0.006105720065534115,4.28132963180542,27.40528106689453,0.34101757407188416,0.0047362265177071095,0.023648934438824654,4.582657337188721,38.625038146972656,0.3531414866447449,0.005324627738445997,0.027355022728443146,3.572096109390259,22.98832130432129,920.0,0.09598559886217117,0.08913090080022812,19201.443359375,0.10763756185770035,6.168454170227051,0.6823577880859375,0.003463713452219963,0.007213677745312452,0.5946087837219238,8.028211595956236e-05
f01,window7,7,1,stress,TMCT,2013-06-12 16:28:46,2013-06-12 16:29:46,1.0,1.0,0.0,1.0,0.0,0.0,0,0,0.022916666666666665,0,71,0,1.0,0.9,1.0,0.8459821428571429,0.851823225264346,1.0,0.43094006180763245,0.5148514851485149,1,0.7620847945075312,0.9040457977663727,0.14065758967388892,-0.3372503503185401,0.9040457977663727,1,0.8770695924758911,0.8770695924758911,0.7278400083317148,0.05588621384019543,1,1.0,0,0.02815445326268673,0.0305523332208395,0.0334472730755806,0.03465040773153305,0.005292818415910006,0.008950418792665005,0.15436068177223206,2.1401792764663696e-06,0.002847554162144661,0.004966759122908115,7.632292747497559,97.08634185791016,0.4578942656517029,0.0046522002667188644,0.0204834695905447,6.592489242553711,65.15480041503906,0.46678948402404785,0.005173395853489637,0.0244443416595459,5.878458023071289,52.23244857788086,919.0,0.15436068177223206,0.08545577526092529,72125.1171875,0.09936588257551193,6.135887622833252,0.4064396321773529,0.00419983547180891,0.0062830704264342785,0.5929009318351746,8.010998863028362e-05
f01,window8,8,1,stress,TMCT,2013-06-12 16:29:16,2013-06-12 16:30:16,1.0,1.0,0.0,1.0,0.0,0.0,0,0,0.023697916666666666,0,68,0,1.0,0.9104477611940298,1.0,0.8768656716417911,0.8648149886558325,0.8395808041095734,0.36241695284843445,0.5211047420531527,1,-0.5159089346774057,0.8315696405320582,-0.5510362516344031,-0.33123745576070984,0.8315696405320582,0,0.7320404648780823,0.7320404648780823,0.7504195545865534,0.16719281167147815,1,1.0,0,0.02727317251265049,0.02198180928826332,0.03258384391665459,0.026645436882972717,0.005310669541358948,0.009129490703344345,0.16337084770202637,1.7872080206871033e-06,0.002651817165315151,0.00515731843188405,7.713505744934082,105.66468811035156,0.28293490409851074,0.004170574713498354,0.02069488912820816,3.9806454181671143,28.776029586791992,0.3379714787006378,0.0047947559505701065,0.024781085550785065,3.816603183746338,26.72950553894043,900.0,0.16337084770202637,0.06307180225849152,91411.2109375,0.10039572417736053,6.086771011352539,0.7865659594535828,0.00439472496509552,0.006446358747780323,0.6062508821487427,8.334760059369728e-05
f01,window9,9,1,stress,TMCT,2013-06-12 16:29:46,2013-06-12 16:30:46,1.0,1.0,0.0,1.0,0.0,0.0,0,0,0.022916666666666665,0,66,0,1.0,0.9692307692307692,1.0,0.9175480769230769,0.8542126103777721,0.8393864035606384,0.37993353605270386,0.5429911412193851,1,0.8104393857074669,0.3346568275394967,0.060008208487683797,-0.09492122603189672,0.8104393857074669,0,0.6214467883110046,0.6214467883110046,0.781811411974539,0.2927221959428288,1,1.0,0,0.02643061988055706,0.031736910343170166,0.031744252890348434,0.036741096526384354,0.005313632544130087,0.008444706909358501,0.09593707323074341,3.604218363761902e-06,0.002852233126759529,0.005205690860748291,5.492408275604248,43.25467300415039,0.7900588512420654,0.002418400254100561,0.01914053224027157,16.27301025390625,376.9860534667969,0.8697731494903564,0.00271460204385221,0.02332165651023388,14.242615699768066,306.4248962402344,887.0,0.09593707323074341,0.09356516599655151,26617.99609375,0.08829886466264725,6.120509147644043,0.09396367520093918,0.003974887076765299,0.0062651061452925205,0.5888667106628418,7.131307211238891e-05
f01,window10,10,1,stress,TMCT,2013-06-12 16:30:16,2013-06-12 16:31:16,1.0,1.0,0.0,1.0,0.0,0.0,0,0,0.022135416666666668,0,65,0,1.0,0.984375,1.0,0.9287109375,0.8794022559381451,1.0,0.2976612448692322,0.4637832204273059,1,0.802164586972793,0.343297095604844,0.11907899911965195,0.2403272725998556,0.802164586972793,0,0.3255784511566162,0.3255784511566162,0.8250128316657819,0.6395846128279201,1,1.0,0,0.027290103957057,0.04563846439123154,0.032671306282281876,0.04997970908880234,0.005381200462579727,0.008914737962186337,0.11503960192203522,5.024485290050507e-06,0.002756582573056221,0.005384507123380899,6.217319965362549,57.92560958862305,0.9333600997924805,0.0042673880234360695,0.01924811489880085,15.122047424316406,276.55322265625,0.9713626503944397,0.005072638392448425,0.023103084415197372,13.861364364624023,242.24803161621094,871.0,0.11503960192203522,0.10938245058059692,22895.798828125,0.09444241970777512,6.074257850646973,0.10427332669496536,0.004299049731343985,0.006442407611757517,0.5979159474372864,7.947255653562024e-05
f01,window11,11,1,stress,TMCT,2013-06-12 16:30:46,2013-06-12 16:31:46,1.0,1.0,0.0,1.0,0.0,0.0,0,0,0.0234375,0,67,0,1.0,0.9545454545454546,1.0,0.8908617424242424,0.819823877095856,0.9272951185703278,0.2811082601547241,0.46847316310578424,1,0.34169521855812823,-0.36882448893053915,0.2629634733630734,-0.5304211689637075,0.34169521855812823,0,0.327335000038147,0.327335000038147,0.795031844943124,0.5958083852420353,1,1.0,0,0.026325594633817673,0.029984669759869576,0.031550370156764984,0.03462803736329079,0.005224777385592461,0.00823569018393755,0.12024953961372375,5.992129445075989e-06,0.002836361527442932,0.005292929708957672,5.921802520751953,57.50089645385742,0.5980182886123657,0.002787689445540309,0.019832508638501167,10.821702003479004,172.7233428955078,0.6783459186553955,0.0030999036971479654,0.024103445932269096,9.9109525680542,154.25723266601562,915.0,0.12024953961372375,0.08032763004302979,20067.9140625,0.0870392695069313,6.152652740478516,0.16308097541332245,0.003808355424553156,0.006180712953209877,0.5908345580101013,6.782658601878211e-05
f01,window12,12,1,stress,TMCT,2013-06-12 16:31:16,2013-06-12 16:32:16,1.0,1.0,0.0,1.0,0.0,0.0,0,0,0.022395833333333334,0,69,0,1.0,0.9117647058823529,1.0,0.8667279411764706,0.8802981099359191,0.7009464502334595,0.27550509572029114,0.45544554455445546,1,0.5153157040931019,-0.16464043021842534,0.23842940630896414,-0.695836152491473,0.5153157040931019,0,0.44064128398895264,0.44064128398895264,0.7847311869348216,0.4281992678180979,1,1.0,0,0.0326821506023407,0.043653178960084915,0.03890927881002426,0.050809599459171295,0.006227125879377127,0.010964009910821915,0.12470448017120361,5.9176236391067505e-06,0.0031847208738327026,0.006223488599061966,5.8935675621032715,46.95173645019531,0.5134758949279785,0.003761639818549156,0.02179059386253357,5.448861598968506,38.35646438598633,0.6381803750991821,0.004450624343007803,0.026196826249361038,5.457529544830322,39.94638442993164,897.0,0.12470448017120361,0.11439785361289978,21073.404296875,0.14261099696159363,6.041281700134277,0.43262779712677,0.004570806864649057,0.007726235315203667,0.619677722454071,0.00012020952271996066
f01,window13,13,1,stress,TMCT,2013-06-12 16:31:46,2013-06-12 16:32:46,1.0,1.0,0.0,1.0,0.0,0.0,0,0,0.021354166666666667,0,68,0,1.0,0.9552238805970149,1.0,0.882695895522388,0.9511066126259742,0.5157280564308167,0.3000505566596985,0.4658676393955185,1,0.585945966766802,0.031496581343868214,-0.21000787614636965,-0.6480846136322334,0.585945966766802,0,0.35960233211517334,0.35960233211517334,0.8314613028150809,0.4936734993281289,1,1.0,0,0.03017818182706833,0.044521406292915344,0.03545963764190674,0.05026906356215477,0.0052814544178545475,0.009110436774790287,0.10131389647722244,2.246350049972534e-06,0.002679925411939621,0.005173269659280777,5.525279521942139,41.4859619140625,0.6239710450172424,0.003679551649838686,0.019678661599755287,7.110041618347168,65.45951080322266,0.6991668939590454,0.00392979895696044,0.02368844486773014,7.001752853393555,64.67497253417969,901.0,0.10131389647722244,0.10038763284683228,45101.5625,0.09991533309221268,6.065497875213623,0.30228322744369507,0.004412406589835882,0.006460326723754406,0.61092609167099,8.300006447825581e-05
f01,window14,14,1,stress,TMCT,2013-06-12 16:32:16,2013-06-12 16:33:16,1.0,1.0,0.0,1.0,0.0,0.0,0,0,0.02578125,0,68,0,1.0,0.9552238805970149,1.0,0.8859608208955224,0.9119536815801479,0.6113395094871521,0.38753101229667664,0.5445544554455446,1,0.26722566774787176,-0.015181582986981934,-0.2742083579335794,-0.21939174459578273,0.26722566774787176,0,0.3316844403743744,0.3316844403743744,0.8225072126754128,0.535706021571555,1,1.0,0,0.02682977356016636,0.01992241106927395,0.032617054879665375,0.025497647002339363,0.005787281319499016,0.009614808484911919,0.1371282935142517,2.226606011390686e-05,0.003168017603456974,0.00582084059715271,6.306356430053711,59.8067626953125,0.19617216289043427,0.0045373705215752125,0.02112976461648941,2.9666740894317627,13.457672119140625,0.2758311629295349,0.005674311425536871,0.02524687349796295,3.2031593322753906,16.262142181396484,868.0,0.1371282935142517,0.09482201188802719,6158.62451171875,0.10931345075368881,6.0791521072387695,1.1084189414978027,0.0043319654650986195,0.006866302341222763,0.5925400853157043,9.244453394785523e-05
f01,window15,15,1,stress,TMCT,2013-06-12 16:32:46,2013-06-12 16:33:46,0.5333333333333333,0.5333333333333333,0.4666666666666667,1.0,0.0,0.0,0,0,0.02265625,0,74,0,1.0,0.7397260273972602,1.0,0.811429794520548,0.8537652019552726,0.7715144753456116,0.9339349269866943,0.6925482021886399,1,0.7403856417040181,0.7829588927696466,0.8809114210899036,0.7488406080524758,0.8809114210899036,0,1.468144416809082,1.0,0.6520199715454859,-0.17176227245560094,1,1.0,0,0.02778908796608448,0.05150724574923515,0.03352952376008034,0.05994067341089249,0.005740434397011995,0.01157918106764555,0.22352978587150574,1.1622905731201172e-06,0.003055988345295191,0.005328680854290724,10.514327049255371,161.635986328125,1.0322412252426147,0.003910824190825224,0.01981055922806263,14.022912979125977,234.00929260253906,1.1045105457305908,0.003929698374122381,0.023473311215639114,12.954061508178711,197.0055389404297,932.0,0.22352978587150574,0.1348412036895752,192318.328125,0.15567198395729065,6.073380947113037,0.07391202449798584,0.00543862534686923,0.006972657982259989,0.6066768169403076,0.00013407744700089097
f01,window16,16,0,normal,First Rest,2013-06-12 16:33:16,2013-06-12 16:34:16,0.9666666666666667,0.03333333333333333,0.9666666666666667,1.0,0.0,0.0,0,0,0.021614583333333333,0,77,0,1.0,0.631578947368421,1.0,0.7804276315789473,0.8542529536464302,0.7396902441978455,1.4897173643112183,0.7113079729025534,1,0.8587286884367599,0.869310298079271,0.87355560805358,0.7531707931818284,0.87355560805358,0,2.2733240127563477,1.0,0.6089074650412974,-0.2120405163284047,1,1.0,0,0.03489065170288086,0.06352078169584274,0.04122352972626686,0.07187264412641525,0.006332880351692438,0.012301587499678135,0.1711530089378357,5.401670932769775e-07,0.0029305596835911274,0.0057953423820436,7.468620777130127,77.7456283569336,0.8465441465377808,0.0015152011765167117,0.02079262211918831,7.140257835388184,66.95917510986328,0.9346680045127869,0.002005389891564846,0.02450564131140709,6.9386796951293945,62.89140701293945,930.0,0.1711530089378357,0.15797197818756104,316851.96875,0.1780340075492859,6.027644634246826,0.2917023301124573,0.00513256574049592,0.007987967692315578,0.6299960017204285,0.00015132904809433967
f01,window17,17,0,normal,First Rest,2013-06-12 16:33:46,2013-06-12 16:34:46,1.0,0.0,1.0,1.0,0.0,0.0,0,0,0.02109375,0,73,0,0.9861111111111112,0.6944444444444444,0.9861111111111112,0.8111979166666666,0.8203626653668826,0.7542718648910522,1.161128282546997,0.4747264200104221,1,0.8687974602439225,0.8502449933631894,0.8352960537283809,0.6080488210144676,0.8687974602439225,0,1.9683557748794556,1.0,0.6211087996100647,-0.2007858118799608,1,1.0,0,0.03677991405129433,0.05998649820685387,0.04399692639708519,0.07101952284574509,0.007217011880129576,0.015282411128282547,0.262123703956604,5.6438148021698e-06,0.0033004730939865112,0.005941889248788357,8.442452430725098,107.34724426269531,0.8285302519798279,0.0015635211020708084,0.02222917042672634,5.731703758239746,46.26123809814453,1.0082008838653564,0.0020679959561675787,0.026700126007199287,5.917998313903809,50.40741729736328,927.0,0.262123703956604,0.17967063188552856,46444.41796875,0.2647858262062073,5.955982685089111,0.351025253534317,0.005915894638746977,0.009326878935098648,0.6454761624336243,0.00023355208395514637
f01,window18,18,0,normal,First Rest,2013-06-12 16:34:16,2013-06-12 16:35:16,1.0,0.0,1.0,1.0,0.0,0.0,0,0,0.0234375,0,66,0,0.9846153846153847,0.8153846153846154,0.9846153846153847,0.9007211538461538,0.8668500316040406,0.7390618324279785,0.5034790635108948,0.3183949973944763,1,0.584812580084713,0.7737624862267762,0.7425093456053612,-0.5957169917592879,0.7737624862267762,0,1.3018134832382202,1.0,0.6831319325581354,-0.15698357245353367,1,1.0,0,0.03522168844938278,0.06661748141050339,0.04198790714144707,0.07592537254095078,0.006766218226402998,0.013574362732470036,0.16731932759284973,1.1097639799118042e-05,0.0032100905664265156,0.005811548326164484,6.426828861236572,53.23659133911133,0.8257189393043518,0.003540006000548601,0.019980579614639282,6.865950584411621,55.90666961669922,0.8427130579948425,0.003737037070095539,0.024388078600168228,6.558096408843994,49.554840087890625,902.0,0.16731932759284973,0.13966944813728333,15077.01953125,0.207500621676445,5.949509143829346,0.2591194808483124,0.005570758134126663,0.008691779337823391,0.6415801644325256,0.00018426332098897547
f01,window19,19,0,normal,First Rest,2013-06-12 16:34:46,2013-06-12 16:35:46,1.0,0.0,1.0,1.0,0.0,0.0,0,0,0.025520833333333333,0,65,0,1.0,0.859375,1.0,0.926513671875,0.9274494048035969,0.633523017168045,0.23565737903118134,0.3293381969775925,1,0.6290812931313736,0.8586633613153033,0.6009601939979566,0.7047915838364228,0.8586633613153033,0,0.2748509347438812,0.2748509347438812,0.7944997279666909,0.5732046707490293,1,1.0,0,0.03004908561706543,0.04178537055850029,0.03593258559703827,0.05022190138697624,0.005883502308279276,0.011782832443714142,0.22592860460281372,6.826594471931458e-07,0.002974230796098709,0.005477694794535637,9.623337745666504,147.13694763183594,0.5980185270309448,0.005207788664847612,0.02017725631594658,7.695011138916016,77.28205871582031,0.8239471316337585,0.005407842807471752,0.023773785680532455,8.532273292541504,100.94808959960938,893.0,0.22592860460281372,0.1036650538444519,330953.59375,0.15489152073860168,5.991844654083252,0.3053697347640991,0.0056111630983650684,0.007372492458671331,0.6258378624916077,0.00013883515202905983
f01,window20,20,0,normal,First Rest,2013-06-12 16:35:16,2013-06-12 16:36:16,1.0,0.0,1.0,1.0,0.0,0.0,0,0,0.024479166666666666,0,64,0,1.0,0.9523809523809523,1.0,0.935515873015873,0.8630778131545407,0.7754617631435394,0.31239116191864014,0.4340802501302762,1,0.501580265372606,0.7206265645107215,0.4999085430844015,0.33606460985234693,0.7206265645107215,0,0.2363748997449875,0.2363748997449875,0.8162382349242444,0.6589742800438183,1,1.0,0,0.027563050389289856,0.03661825880408287,0.03246338665485382,0.04156779497861862,0.00490033533424139,0.008883124217391014,0.10324437916278839,1.7434358596801758e-06,0.002319619059562683,0.004386493470519781,5.659251689910889,43.84809875488281,0.45166993141174316,0.0022231903858482838,0.01803140714764595,7.564103126525879,74.45945739746094,0.5149487853050232,0.002883255248889327,0.021458502858877182,7.199446201324463,70.23512268066406,840.0,0.10324437916278839,0.08746379613876343,59218.9140625,0.08645547181367874,5.940614700317383,0.46064481139183044,0.005102491471916437,0.006193774286657572,0.631222128868103,7.890989218140021e-05
f01,window21,21,0,normal,First Rest,2013-06-12 16:35:46,2013-06-12 16:36:46,1.0,0.0,1.0,1.0,0.0,0.0,0,0,0.02578125,0,61,0,1.0,1.0,1.0,0.99453125,0.9273056213128889,0.645757257938385,0.4103350341320038,0.5831162063574779,1,-0.006697569791886753,-0.0459580374842205,-0.12923663450457035,-0.14135914634972557,-0.006697569791886753,0,0.46462464332580566,0.46462464332580566,0.831729222061286,0.4286410764870128,1,1.0,0,0.025133058428764343,0.0253889262676239,0.029330287128686905,0.028657592833042145,0.004197228699922562,0.008016841486096382,0.1774442493915558,2.1401792764663696e-06,0.0021619610488414764,0.004170861095190048,12.73206615447998,253.7523193359375,0.20373257994651794,0.002039763843640685,0.01723804511129856,3.71134090423584,17.982892990112305,0.22024723887443542,0.0020661735907197,0.020358189940452576,3.4049575328826904,14.981728553771973,863.0,0.1774442493915558,0.05123964324593544,82910.9296875,0.07066803425550461,6.044768333435059,1.0537526607513428,0.005386121105402708,0.005027692764997482,0.5982360243797302,6.426974869100377e-05
f01,window22,22,0,normal,First Rest,2013-06-12 16:36:16,2013-06-12 16:37:16,1.0,0.0,1.0,1.0,0.0,0.0,0,0,0.030989583333333334,0,60,0,1.0,1.0,1.0,1.008209745762712,0.9672353759325065,0.520761251449585,0.36697155237197876,0.5184992183428869,1,-0.03965435653054553,-0.01770812480528291,-0.05954932351156091,-0.03683115110055056,-0.01770812480528291,0,0.46204760670661926,0.46204760670661926,0.84396585210909,0.4099515501389035,1,1.0,0,0.02340598776936531,0.025470484048128128,0.027719195932149887,0.0294224563986063,0.004313208628445864,0.008358141407370567,0.1691461205482483,9.490177035331726e-07,0.002293734811246395,0.0037737132515758276,10.782413482666016,185.313720703125,0.3342946171760559,0.002680685603991151,0.016192398965358734,5.225761413574219,40.556705474853516,0.3854979872703552,0.0033898947294801474,0.0192266833037138,4.951320648193359,37.77177047729492,840.0,0.1691461205482483,0.06095098704099655,178232.84375,0.07430832087993622,5.986237525939941,0.518269956111908,0.0056608025915920734,0.005234140902757645,0.6060349345207214,6.985852087382227e-05
f01,window23,23,0,normal,First Rest,2013-06-12 16:36:46,2013-06-12 16:37:46,1.0,0.0,1.0,1.0,0.0,0.0,0,0,0.022916666666666665,0,63,0,1.0,0.9193548387096774,1.0,0.9478326612903226,0.9475522574187465,0.5445082783699036,0.2074241191148758,0.3705054715997916,1,0.11058722941388667,0.12280830361549482,0.1968698569652469,0.18061099356189564,0.1968698569652469,0,0.16808488965034485,0.16808488965034485,0.8351991237444604,0.6807366959097207,1,1.0,0,0.028031451627612114,0.05968870222568512,0.033017441630363464,0.06530348211526871,0.004985991399735212,0.009838292375206947,0.17032790184020996,2.8442591428756714e-06,0.002450624480843544,0.00527291651815176,10.133513450622559,146.08468627929688,1.0351108312606812,0.0019506581593304873,0.017791667953133583,12.77436351776123,183.67210388183594,1.2054387331008911,0.002285416005179286,0.021163439378142357,12.725224494934082,189.90638732910156,849.0,0.17032790184020996,0.14631709456443787,59884.8046875,0.103282630443573,5.975966930389404,0.10427059978246689,0.0057637994177639484,0.006142694503068924,0.6152697205543518,9.679199138190597e-05
f01,window24,24,0,normal,First Rest,2013-06-12 16:37:16,2013-06-12 16:38:16,1.0,0.0,1.0,1.0,0.0,0.0,0,0,0.022916666666666665,0,65,0,1.0,0.90625,1.0,0.923095703125,0.8577502259963914,0.8958988189697266,0.09328095614910126,0.279833246482543,1,0.22131115153053219,0.009530889937102448,0.21313122017554234,0.3322205037225207,0.3322205037225207,0,0.08923929929733276,0.08923929929733276,0.8109011378691842,0.8210479619441967,1,1.0,0,0.027783043682575226,0.05674656853079796,0.03300178796052933,0.06231579929590225,0.005218745209276676,0.0096857575699687,0.16264808177947998,1.1865049600601196e-06,0.0026681642048060894,0.005030377302318811,8.275087356567383,104.86949920654297,1.0162757635116577,0.001921153161674738,0.018445249646902084,13.14989948272705,195.57418823242188,1.1789238452911377,0.0022285773884505033,0.02209635078907013,12.898428916931152,197.78651428222656,910.0,0.16264808177947998,0.12158343195915222,137081.671875,0.11015477776527405,6.056882858276367,0.09478475153446198,0.004884142894297838,0.0064253839664161205,0.614929735660553,9.381390555063263e-05
f01,window25,25,0,normal,First Rest,2013-06-12 16:37:46,2013-06-12 16:38:46,1.0,0.0,1.0,1.0,0.0,0.0,0,0,0.022395833333333334,0,70,0,1.0,0.8695652173913043,1.0,0.8539402173913043,0.8874066473782667,0.6778234839439392,0.5714190602302551,0.3689421573736321,1,0.8195472085658263,0.8243228671469398,0.6698374516845275,0.706099477231625,0.8243228671469398,0,1.107264518737793,1.0,0.7140480811700017,-0.14782290195205716,1,1.0,0,0.03440661355853081,0.12848223745822906,0.040169164538383484,0.13782642781734467,0.005762551445513964,0.013081955723464489,0.26994776725769043,2.7641654014587402e-06,0.002925679087638855,0.005143205635249615,12.580174446105957,219.95523071289062,2.798875570297241,0.0045996420085430145,0.01845729537308216,16.227691650390625,299.9606018066406,3.0688233375549316,0.005058248061686754,0.022556019946932793,16.404930114746094,311.2755432128906,873.0,0.26994776725769043,0.17057812213897705,97659.7734375,0.17839279770851135,5.94497013092041,0.04961639642715454,0.007048865780234337,0.007145497016608715,0.6192840337753296,0.0001711375662125647
f01,window26,26,0,normal,First Rest,2013-06-12 16:38:16,2013-06-12 16:39:16,1.0,0.0,1.0,1.0,0.0,0.0,0,0,0.021614583333333333,0,72,0,1.0,0.8873239436619719,1.0,0.8316461267605634,0.9275071508535196,0.6965305805206299,0.5635859370231628,0.3017196456487754,1,0.7798833493631678,0.7988291770824032,0.8227570888135385,0.8332051643494172,0.8332051643494172,0,1.1088166236877441,1.0,0.7331817227208447,-0.1277933840578711,1,1.0,0,0.037901848554611206,0.1151103675365448,0.043805383145809174,0.12320085614919662,0.00590353412553668,0.013781321235001087,0.23109221458435059,6.146728992462158e-08,0.002623514737933874,0.005003456957638264,9.254953384399414,116.44506072998047,1.6651175022125244,0.003109620651230216,0.017847158014774323,9.839503288269043,111.76557159423828,1.6685999631881714,0.0031154907774180174,0.021755950525403023,9.321709632873535,98.82272338867188,886.0,0.23109221458435059,0.16264808177947998,3759596.5,0.19915200769901276,5.855403423309326,0.14248454570770264,0.007279358338564634,0.007722306996583939,0.6533028483390808,0.00018992481636814773
f01,window27,27,0,normal,First Rest,2013-06-12 16:38:46,2013-06-12 16:39:46,1.0,0.0,1.0,1.0,0.0,0.0,0,0,0.022916666666666665,0,64,0,1.0,0.9841269841269841,1.0,0.9419642857142857,0.8823577723324961,0.8932874798774719,0.05905279144644737,0.12506513809275666,1,0.12191254805429795,0.3386777948080707,0.10073256125229739,0.14248395369191308,0.3386777948080707,0,0.09315306693315506,0.09315306693315506,0.8490428186572269,0.8459963413574321,1,1.0,0,0.03350327908992767,0.11144759505987167,0.03850719332695007,0.12134909629821777,0.0050039142370224,0.014647561125457287,0.27799129486083984,1.2209638953208923e-06,0.0023083314299583435,0.004061040468513966,12.060850143432617,183.8516845703125,1.9017188549041748,0.0036296392790973186,0.015955425798892975,12.192934036254883,170.62330627441406,1.9989529848098755,0.004196730442345142,0.019267983734607697,11.904397010803223,161.46705627441406,841.0,0.27799129486083984,0.18529045581817627,227681.828125,0.20149534940719604,5.678096294403076,0.11253740638494492,0.011377669870853424,0.006615287158638239,0.6602252721786499,0.00021455103706102818
f01,window28,28,0,normal,First Rest,2013-06-12 16:39:16,2013-06-12 16:40:16,1.0,0.0,1.0,1.0,0.0,0.0,0,0,0.024479166666666666,0,64,0,1.0,0.9682539682539683,1.0,0.9432043650793651,0.8923259826754173,0.974554717540741,0.14847621321678162,0.27045336112558627,1,0.555511175738798,0.6112716870325905,0.33054904653534195,0.16145317304327408,0.6112716870325905,0,0.19143331050872803,0.19143331050872803,0.8358560510533397,0.765763055021502,1,1.0,0,0.027447866275906563,0.047011300921440125,0.03283116966485977,0.05605605989694595,0.005383303388953209,0.012055100873112679,0.1646704375743866,1.0617077350616455e-07,0.0025128833949565887,0.0044786361977458,7.365076541900635,68.51976776123047,0.6273689270019531,0.003655890002846718,0.017462993040680885,8.705401420593262,92.92415618896484,0.717188835144043,0.003732279408723116,0.02080455794930458,8.369540214538574,85.83348083496094,853.0,0.1646704375743866,0.12395286560058594,1550995.875,0.14868251979351044,5.8269500732421875,0.23504085838794708,0.007051217369735241,0.006987327244132757,0.6482204794883728,0.00014532545174006373
f01,window29,29,0,normal,First Rest,2013-06-12 16:39:46,2013-06-12 16:40:46,1.0,0.0,1.0,1.0,0.0,0.0,0,0,0.021614583333333333,0,70,0,1.0,0.855072463768116,1.0,0.8519021739130435,0.8730676824513339,0.8479206562042236,0.4497694671154022,0.44762897342365815,1,0.563996397493313,0.4579234904501754,0.5765182878304423,-0.0003490708583731623,0.5765182878304423,0,0.5037779808044434,0.5037779808044434,0.7535714921622023,0.38299084298988084,1,1.0,0,0.03408045321702957,0.07705901563167572,0.04019112139940262,0.08615182340145111,0.006110670510679483,0.013519082218408585,0.19029167294502258,2.8060749173164368e-06,0.0024955766275525093,0.004957240074872971,7.179275035858154,69.82749938964844,1.459755778312683,0.0028185436967760324,0.01691044308245182,11.48539924621582,175.64108276367188,1.5936506986618042,0.0033457959070801735,0.020228028297424316,10.673267364501953,155.5669708251953,831.0,0.19029167294502258,0.13532041013240814,67814.1796875,0.18290798366069794,5.76298713684082,0.14210955798625946,0.007093374617397785,0.008229770697653294,0.6725831031799316,0.00018276557966601104
f01,window30,30,0,normal,First Rest,2013-06-12 16:40:16,2013-06-12 16:41:16,1.0,0.0,1.0,1.0,0.0,0.0,0,0,0.021354166666666667,0,68,0,1.0,0.8656716417910447,1.0,0.8878264925373134,0.851490107389486,1.0,0.45948493480682373,0.4064616988014591,1,0.6005099100097605,0.4684056459491486,0.6046836390687692,0.09773880066512478,0.6046836390687692,0,0.49075302481651306,0.49075302481651306,0.7526403864516125,0.4318209945681719,1,1.0,0,0.034398261457681656,0.08379503339529037,0.04037808999419212,0.09199292212724686,0.0059798299334943295,0.01301831379532814,0.14910028874874115,7.757917046546936e-06,0.0024475008249282837,0.004779343493282795,6.494847297668457,55.63497543334961,1.5154714584350586,0.0036712579894810915,0.0162887591868639,10.651961326599121,148.66236877441406,1.654341459274292,0.004069347865879536,0.019114287570118904,10.133851051330566,139.39031982421875,860.0,0.14910028874874115,0.14538723230361938,19219.11328125,0.17650198936462402,5.784972190856934,0.15166589617729187,0.006673827767372131,0.008130188100039959,0.6790104508399963,0.0001694764941930771
f01,window31,31,0,normal,First Rest,2013-06-12 16:40:46,2013-06-12 16:41:46,1.0,0.0,1.0,1.0,0.0,0.0,0,0,0.02265625,0,63,0,1.0,0.9193548387096774,1.0,0.9556451612903226,0.862996367145227,1.0,0.33107423782348633,0.31005732152162585,1,0.7544221682938294,0.6597176165911696,0.7330106421016082,0.8043368665881685,0.8043368665881685,0,0.5293475389480591,0.5293475389480591,0.773706091732633,0.4122080044511509,1,1.0,0,0.030399689450860023,0.05178627371788025,0.03661205619573593,0.05939487740397453,0.006212367210537195,0.013166580349206924,0.20065215229988098,2.207234501838684e-07,0.0026429230347275734,0.004934370517730713,7.059737205505371,73.00763702392578,1.0654540061950684,0.003564282553270459,0.018426276743412018,11.73080062866211,200.66583251953125,1.1731534004211426,0.004851341713219881,0.022577442228794098,10.335478782653809,165.71397399902344,877.0,0.20065215229988098,0.114580899477005,909065.875,0.18588219583034515,5.854255199432373,0.18393148481845856,0.006262163165956736,0.00825704075396061,0.6638069748878479,0.00017335882876068354
f01,window32,32,0,normal,First Rest,2013-06-12 16:41:16,2013-06-12 16:42:16,1.0,0.0,1.0,1.0,0.0,0.0,0,0,0.023697916666666666,0,65,0,1.0,0.921875,1.0,0.9228515625,0.8495895787180741,1.0,0.2710685133934021,0.29025534132360603,1,0.6886935393205006,0.4786910975206463,0.6969521067660037,0.7532994449753375,0.7532994449753375,0,0.5209017395973206,0.5209017395973206,0.7715366996556902,0.418058155082198,1,1.0,0,0.028341148048639297,0.04115771874785423,0.03401417285203934,0.04630765691399574,0.005673025734722614,0.009917196817696095,0.15910843014717102,5.174428224563599e-06,0.0027208784595131874,0.0053791869431734085,6.775971412658691,77.67786407470703,0.8634001016616821,0.0023024557158350945,0.018740659579634666,12.250480651855469,216.04327392578125,0.9505865573883057,0.0028520163614302874,0.022998537868261337,11.178915977478027,191.31350708007812,863.0,0.15910843014717102,0.08718645572662354,30748.986328125,0.11265084892511368,6.003298282623291,0.12815411388874054,0.004699843004345894,0.007087766658514738,0.6239662766456604,9.835078526521102e-05
f01,window33,33,0,normal,First Rest,2013-06-12 16:41:46,2013-06-12 16:42:46,1.0,0.0,1.0,1.0,0.0,0.0,0,0,0.02890625,0,65,0,1.0,1.0,1.0,0.9169921875,0.9550332390121795,1.0,0.12843799591064453,0.2756644085461178,1,0.13271381873212465,0.8738148307656505,-0.19902372059692783,0.11290670067683233,0.8738148307656505,0,0.10496498644351959,0.10496498644351959,0.8760134730593018,0.8837933233095252,1,1.0,0,0.02482808753848076,0.03201451152563095,0.028759634122252464,0.03534615412354469,0.003931544721126556,0.009058477357029915,0.21475328505039215,6.821006536483765e-06,0.002037105616182089,0.0036086481995880604,16.229671478271484,360.2677001953125,0.2558249235153198,0.0022484143264591694,0.015326494351029396,4.406158447265625,22.96439552307129,0.2753961980342865,0.002342832274734974,0.018201526254415512,4.111969947814941,20.130741119384766,814.0,0.21475328505039215,0.05237012356519699,31484.10546875,0.07937562465667725,5.914669513702393,0.7808455228805542,0.00775018148124218,0.004781239666044712,0.6073141694068909,8.205600897781551e-05
f01,window34,34,0,normal,First Rest,2013-06-12 16:42:16,2013-06-12 16:43:16,1.0,0.0,1.0,1.0,0.0,0.0,0,0,0.030989583333333334,0,65,0,1.0,1.0,1.0,0.913330078125,0.9540133164499011,1.0,0.098872609436512,0.21417404898384576,1,0.17017862411922233,0.4941511670214146,-0.009059607369223286,0.14473032451512033,0.4941511670214146,0,0.09652546793222427,0.09652546793222427,0.8765514481417478,0.8919778611802509,1,1.0,0,0.02499968558549881,0.03380942344665527,0.029385577887296677,0.03707999363541603,0.0043858932331204414,0.009883335791528225,0.23764441907405853,9.336508810520172e-07,0.002260287292301655,0.004042628686875105,16.477325439453125,373.23236083984375,0.28475549817085266,0.00217800191603601,0.015607733279466629,5.1159348487854,30.70296859741211,0.286336749792099,0.0024998567532747984,0.018661534413695335,4.565765380859375,24.814977645874023,829.0,0.23764441907405853,0.04542021453380585,254532.421875,0.09692368656396866,5.945134162902832,0.6976483464241028,0.007331701461225748,0.005329769570380449,0.606870710849762,9.768032759893686e-05
f01,window35,35,0,normal,First Rest,2013-06-12 16:42:46,2013-06-12 16:43:46,1.0,0.0,1.0,1.0,0.0,0.0,0,0,0.026041666666666668,0,65,0,1.0,1.0,1.0,0.931396484375,0.9102278972135325,1.0,0.05091284587979317,0.12871287128712872,1,-0.06335188843627368,0.26458938905119883,0.18897423180084005,-0.010097850460696016,0.26458938905119883,0,0.07135188579559326,0.07135188579559326,0.8659331805845004,0.9062050885077899,1,1.0,0,0.025284476578235626,0.030708851292729378,0.029708556830883026,0.0346062146127224,0.0044240802526474,0.009919856674969196,0.21215373277664185,2.973712980747223e-06,0.0023289495147764683,0.003947569988667965,13.500343322753906,251.55702209472656,0.2605718970298767,0.0033311268780380487,0.01601424440741539,4.631465911865234,26.68050765991211,0.2675258219242096,0.003524069208651781,0.019458014518022537,4.163370132446289,21.270673751831055,838.0,0.21215373277664185,0.12150639295578003,71343.0390625,0.09886392951011658,5.936398506164551,0.7776618003845215,0.00719289667904377,0.005396001506596804,0.6091166734695435,9.840355778578669e-05
f01,window36,36,0,normal,First Rest,2013-06-12 16:43:16,2013-06-12 16:44:16,1.0,0.0,1.0,1.0,0.0,0.0,0,0,0.027864583333333335,0,63,0,1.0,1.0,1.0,0.9564012096774194,0.8916371333420796,0.9226507544517517,0.048443712294101715,0.14590932777488275,0,-0.10385151162407012,-0.23439302873953005,-0.05674425946093616,-0.24185733896265965,-0.05674425946093616,0,0.06831450015306473,0.06831450015306473,0.8606596899873175,0.8852574717953932,0,1.0,1,0.02334526926279068,0.024895958602428436,0.027869639918208122,0.029849141836166382,0.004524370189756155,0.009738519787788391,0.1770300269126892,1.085922122001648e-06,0.0021958756260573864,0.0042237997986376286,10.356748580932617,152.02085876464844,0.21332137286663055,0.0024111932143568993,0.01571481302380562,4.3192853927612305,25.17666244506836,0.24129708111286163,0.002521730260923505,0.019158903509378433,4.055704593658447,21.495943069458008,836.0,0.1770300269126892,0.12765859067440033,163022.765625,0.09639807045459747,5.889841079711914,0.9055202603340149,0.006738132797181606,0.005720462184399366,0.6314271092414856,9.483877511229366e-05
f01,window37,37,0,normal,First Rest,2013-06-12 16:43:46,2013-06-12 16:44:46,1.0,0.0,1.0,1.0,0.0,0.0,0,0,0.023177083333333334,0,65,0,1.0,0.9375,1.0,0.91943359375,0.9368611025485022,1.0,0.24415123462677002,0.2985930171964565,1,0.5402567707459887,0.38186626062328693,0.48664584216921564,0.11749430836916797,0.5402567707459887,0,0.3632268011569977,0.3632268011569977,0.8197356506488509,0.6022384744801279,1,1.0,0,0.026129532605409622,0.030638720840215683,0.03144526109099388,0.03703806921839714,0.005315729416906834,0.010204593650996685,0.12078219652175903,8.519738912582397e-06,0.002465581987053156,0.0048026153817772865,6.18009614944458,52.2576789855957,0.5205271244049072,0.0029260748997330666,0.01778903417289257,8.405555725097656,112.88756561279297,0.6031509637832642,0.0030837198719382286,0.021205905824899673,7.559510707855225,94.13325500488281,832.0,0.12078219652175903,0.12075068056583405,14176.7490234375,0.1101490706205368,5.88761568069458,0.3390083312988281,0.0056312973611056805,0.006841799709945917,0.6427693963050842,0.00010413373092887923
f01,window38,38,0,normal,First Rest,2013-06-12 16:44:16,2013-06-12 16:45:16,1.0,0.0,1.0,1.0,0.0,0.0,0,0,0.021875,0,69,0,1.0,0.9264705882352942,1.0,0.8704044117647058,0.9440385475179218,0.9660509526729584,0.30433157086372375,0.31787389265242316,1,0.6560826804164719,0.45940224148450076,0.5726389651737825,0.7856707198072744,0.7856707198072744,0,0.429604172706604,0.429604172706604,0.8108393822788338,0.5258593788117043,1,1.0,0,0.0326012559235096,0.03570954129099846,0.03879893198609352,0.04197414591908455,0.006197676062583923,0.010938442312180996,0.14555653929710388,8.698552846908569e-07,0.0028329789638519287,0.005238651297986507,5.293063640594482,43.06492614746094,0.45097339153289795,0.0032097019720822573,0.020537598058581352,4.884734630584717,39.9620246887207,0.5138998031616211,0.0034091996494680643,0.02432083711028099,4.461240291595459,33.82133483886719,879.0,0.14555653929710388,0.09398932754993439,167334.203125,0.1389353722333908,5.981017112731934,0.6489114761352539,0.004681416321545839,0.007924587465822697,0.6385919451713562,0.00011964952136622742
f01,window39,39,0,normal,First Rest,2013-06-12 16:44:46,2013-06-12 16:45:46,1.0,0.0,1.0,1.0,0.0,0.0,0,0,0.022395833333333334,0,72,0,1.0,0.8591549295774648,1.0,0.8327464788732394,0.9421212401211563,0.8930315971374512,0.41908136010169983,0.32100052110474203,1,0.6997877207316421,0.5775800624313678,0.7220612031245839,0.823652662102919,0.823652662102919,0,0.6889211535453796,0.6889211535453796,0.7574062285127948,0.22761353464251166,1,1.0,0,0.033057600259780884,0.04430200159549713,0.03936990350484848,0.051564186811447144,0.006312301382422447,0.011852743104100227,0.18226495385169983,2.1029263734817505e-06,0.003135412000119686,0.005753685720264912,7.151097774505615,76.87682342529297,0.7610811591148376,0.0031119610648602247,0.019518714398145676,7.3281145095825195,93.10153198242188,0.8658152222633362,0.004099732730537653,0.023889191448688507,7.0298075675964355,85.49473571777344,855.0,0.18226495385169983,0.11636339128017426,86672.0546875,0.15418441593647003,5.960953235626221,0.3375888466835022,0.0052933767437934875,0.007908687926828861,0.6257177591323853,0.00014048750745132565
f01,window40,40,0,normal,First Rest,2013-06-12 16:45:16,2013-06-12 16:46:16,1.0,0.0,1.0,1.0,0.0,0.0,0,0,0.021875,0,81,0,1.0,0.7,1.0,0.7337890625,0.8619008589814541,0.8266729414463043,1.49210786819458,0.6070870244919229,1,0.8423807232947903,0.8289584687744632,0.8161429254294451,0.8735859348782069,0.8735859348782069,0,1.9225460290908813,1.0,0.6385702576944362,-0.16785654989306042,1,1.0,0,0.043424997478723526,0.07322803139686584,0.05066777020692825,0.08316733688116074,0.007242769934237003,0.01431103702634573,0.22621631622314453,9.40915197134018e-06,0.0031158365309238434,0.006807590369135141,7.8584818840026855,93.07598876953125,1.2474753856658936,0.002419315045699477,0.023579778149724007,7.677722454071045,94.8260498046875,1.473691701889038,0.002888327231630683,0.027701331302523613,7.953917980194092,104.77039337158203,911.0,0.22621631622314453,0.18630468845367432,24042.158203125,0.2343670278787613,5.972471714019775,0.295606791973114,0.0053833224810659885,0.009373913519084454,0.6464118361473083,0.00020480576495174319
f01,window41,41,0,normal,First Rest,2013-06-12 16:45:46,2013-06-12 16:46:46,1.0,0.0,1.0,1.0,0.0,0.0,0,0,0.021614583333333333,0,80,0,1.0,0.7215189873417721,1.0,0.7559335443037974,0.8514601509987823,0.9336635172367096,1.3066281080245972,0.6216779572694111,1,0.8459043146773991,0.846576158107052,0.8070065883058954,0.8912368178230609,0.8912368178230609,0,1.7038384675979614,1.0,0.6440456402363436,-0.1372633867385954,1,1.0,0,0.04030736908316612,0.07039963454008102,0.04749402776360512,0.08108052611351013,0.00718665961176157,0.014113529585301876,0.23643040657043457,1.0691583156585693e-06,0.0030951928347349167,0.006126455031335354,7.829697132110596,98.14049530029297,1.303799033164978,0.0015137593727558851,0.02006557397544384,8.78194522857666,125.38593292236328,1.5402294397354126,0.0017049274174496531,0.02371271140873432,8.927290916442871,132.9150848388672,931.0,0.23643040657043457,0.17158183455467224,221136.953125,0.23353184759616852,5.987928867340088,0.2727944254875183,0.005216660909354687,0.00935798604041338,0.6503671407699585,0.00019919172336813062
f01,window42,42,0,normal,First Rest,2013-06-12 16:46:16,2013-06-12 16:47:16,1.0,0.0,1.0,1.0,0.0,0.0,0,0,0.020833333333333332,0,74,0,1.0,0.9041095890410958,1.0,0.807791095890411,0.8845346102122789,1.0,0.4301881790161133,0.5184992183428869,1,0.4759423789244334,0.6009282906377805,0.29238214961465203,0.49754147444968627,0.6009282906377805,0,0.6369597911834717,0.6369597911834717,0.763308239561775,0.30540673808192675,1,1.0,0,0.037050604820251465,0.07642626017332077,0.0437026284635067,0.08585640788078308,0.00665202597156167,0.013112412765622139,0.16498833894729614,2.409331500530243e-06,0.0029026009142398834,0.005816352553665638,5.830873966217041,45.39530563354492,1.1709091663360596,0.0021938735153526068,0.019302451983094215,7.821545600891113,81.68097686767578,1.280381202697754,0.0024698558263480663,0.02315010316669941,7.49056339263916,74.29835510253906,911.0,0.16498833894729614,0.11109691858291626,68478.890625,0.19694437086582184,5.942790985107422,0.24891892075538635,0.0053628901951014996,0.008681421168148518,0.6518233418464661,0.0001719353604130447
f01,window43,43,1,stress,Real Opinion,2013-06-12 16:47:16,2013-06-12 16:48:16,0.6166666666666667,0.6166666666666667,0.26666666666666666,0.8833333333333333,0.0,0.0,0,0,0.022916666666666665,0,78,0,1.0,0.8441558441558441,1.0,0.765625,0.8837292172152132,0.7812376022338867,0.7615362405776978,0.6003126628452319,1,0.7013402187731715,0.8238786607218318,0.34264039416375436,0.21347003954440796,0.8238786607218318,0,1.3388996124267578,1.0,0.7027811028269016,-0.1305115418909717,1,1.0,0,0.03676970675587654,0.08017905801534653,0.04374631866812706,0.09359302371740341,0.00697661004960537,0.0182039812207222,0.311232328414917,1.0672956705093384e-06,0.003127092495560646,0.0058698495849967,11.437353134155273,168.83111572265625,1.148136854171753,0.001948975957930088,0.02075180970132351,9.655625343322754,113.4561996459961,1.4461137056350708,0.002486988203600049,0.025316672399640083,9.741352081298828,116.32661437988281,881.0,0.311232328414917,0.29797685146331787,291608.34375,0.3348311185836792,5.80023193359375,0.20411837100982666,0.008863087743520737,0.00918931607156992,0.6578327417373657,0.0003313849156256765
f01,window44,44,1,stress,Real Opinion,2013-06-12 16:47:46,2013-06-12 16:48:46,0.65,0.65,0.0,0.65,0.0,0.0,0,0,0.020833333333333332,0,74,0,1.0,0.8356164383561644,1.0,0.8058647260273972,0.9199023666260545,0.9320517778396606,0.5786495804786682,0.45544554455445546,1,0.6817777568289696,0.7574619214607257,0.4258844886613607,0.5803597433707419,0.7574619214607257,0,0.9159094095230103,0.9159094095230103,0.718626344377981,-0.0022359418997321967,1,1.0,0,0.03344281390309334,0.06865003705024719,0.039937812834978104,0.08007742464542389,0.006494997534900904,0.015718679875135422,0.27149438858032227,1.816079020500183e-06,0.0029977066442370415,0.005483011249452829,11.558197975158691,177.4532928466797,1.001963496208191,0.004429524298757315,0.020385395735502243,10.111917495727539,121.89582824707031,1.2734578847885132,0.005240045487880707,0.024466536939144135,10.1636381149292,125.07493591308594,910.0,0.27149438858032227,0.2687556743621826,149494.8125,0.26322832703590393,5.897774696350098,0.15751118957996368,0.007535149808973074,0.00841080117970705,0.6467715501785278,0.00024707691045477986
f01,window45,45,1,stress,Opposite Opinion,2013-06-12 16:48:16,2013-06-12 16:49:16,0.5333333333333333,0.5333333333333333,0.23333333333333334,0.7666666666666667,0.0,0.0,0,0,0.023177083333333334,0,71,0,1.0,0.8714285714285714,1.0,0.8419642857142857,0.9125141236375909,1.0,0.5606621503829956,0.40281396560708704,1,0.7410642875397706,0.8033734393236212,0.7558093603667985,0.25184789577453814,0.8033734393236212,0,0.9251217246055603,0.9251217246055603,0.7298134932021498,0.014435377732408883,1,1.0,0,0.034009579569101334,0.045752134174108505,0.04062304645776749,0.05282466858625412,0.00661346735432744,0.01063657645136118,0.1816394329071045,9.872019290924072e-07,0.0034646419808268547,0.006731358356773853,6.964090824127197,89.72846221923828,0.7361310124397278,0.004738968331366777,0.022457564249634743,7.234196186065674,78.9240493774414,0.9177704453468323,0.0056136781349778175,0.026948723942041397,7.797934532165527,98.34515380859375,866.0,0.1816394329071045,0.0727480947971344,183994.203125,0.13585351407527924,6.078305244445801,0.25828343629837036,0.004141680896282196,0.007964378222823143,0.6014379858970642,0.00011313676805002615
f01,window46,46,0,normal,Second Rest,2013-06-12 16:49:16,2013-06-12 16:50:16,1.0,0.0,1.0,1.0,0.0,0.0,0,0,0.020572916666666666,0,60,0,0.9661016949152542,0.8813559322033898,0.9661016949152542,1.0002648305084745,0.8640548286715365,0.7986347079277039,0.7554996013641357,0.6096925482021887,1,0.8398066664971865,0.8179052036995709,0.8888868360648319,0.8049966431735329,0.8888868360648319,0,1.2811146974563599,1.0,0.7049791604658678,-0.1267004972061221,1,1.0,0,0.036229442805051804,0.07563004642724991,0.04236229881644249,0.0839567482471466,0.006132854148745537,0.013040633872151375,0.22476071119308472,7.636845111846924e-08,0.002615625038743019,0.005109558347612619,8.0436429977417,102.68277740478516,1.0570058822631836,0.0027081696316599846,0.017071478068828583,7.256155490875244,68.37397003173828,1.07091224193573,0.003470679512247443,0.020830292254686356,6.787067890167236,58.343589782714844,867.0,0.22476071119308472,0.10641124844551086,2943109.5,0.18004991114139557,5.848959922790527,0.30661046504974365,0.006368387024849653,0.008149072527885437,0.6636121273040771,0.00017005811969283968
f01,window47,47,0,normal,Second Rest,2013-06-12 16:49:46,2013-06-12 16:50:46,1.0,0.0,1.0,1.0,0.0,0.0,0,0,0.022395833333333334,0,62,0,0.9672131147540983,0.8360655737704918,0.9672131147540983,0.9736168032786885,0.8104264686940472,0.7987790703773499,0.8491600155830383,0.5466388744137571,1,0.8214618612627075,0.8639777881153954,0.8945679974632504,0.7376509085309808,0.8945679974632504,0,1.3532711267471313,1.0,0.6709967930672307,-0.1534363201501835,1,1.0,0,0.033110156655311584,0.06477624177932739,0.03882318735122681,0.072435162961483,0.005713031627237797,0.011378208175301552,0.15158116817474365,7.563270628452301e-06,0.002636306919157505,0.005097502376884222,6.674896717071533,63.41408920288086,1.0361441373825073,0.002690844004973769,0.018004408106207848,8.101471900939941,90.74667358398438,1.049846887588501,0.002959245815873146,0.02124706655740738,7.457907676696777,73.87749481201172,863.0,0.15158116817474365,0.14066636562347412,20041.748046875,0.13989433646202087,5.902087688446045,0.24039894342422485,0.005754999350756407,0.007382770534604788,0.6453855633735657,0.00012946361675858498
f01,window48,48,0,normal,Second Rest,2013-06-12 16:50:16,2013-06-12 16:51:16,1.0,0.0,1.0,1.0,0.0,0.0,0,0,0.0234375,0,68,0,1.0,0.835820895522388,1.0,0.8859608208955224,0.7883290782415838,0.9957613348960876,0.9792821407318115,0.6216779572694111,1,0.7682153431776914,0.8088744798198899,0.7958456235090008,0.7321028811035954,0.8088744798198899,0,1.678147554397583,1.0,0.6708270816814305,-0.1032311280588658,1,1.0,0,0.0352131687104702,0.05857008323073387,0.04134509339928627,0.06347367912530899,0.0061319260857999325,0.01005775760859251,0.1113443374633789,2.9243528842926025e-06,0.0027603749185800552,0.005674856714904308,4.77729606628418,33.16078186035156,1.1092381477355957,0.003907305188477039,0.022168656811118126,11.098974227905273,172.9547576904297,1.1107838153839111,0.003993029706180096,0.026066089048981667,9.981620788574219,143.71749877929688,875.0,0.1113443374633789,0.10112985968589783,38074.86328125,0.12141413241624832,6.031614303588867,0.1803109049797058,0.004217540845274925,0.007670021615922451,0.6247022151947021,0.00010115848999703303
f01,window49,49,0,normal,Second Rest,2013-06-12 16:50:46,2013-06-12 16:51:46,1.0,0.0,1.0,1.0,0.0,0.0,0,0,0.021354166666666667,0,68,0,1.0,0.8507462686567164,1.0,0.8780317164179104,0.8019544992873211,0.9593387544155121,1.0079435110092163,0.6800416883793643,1,0.590304466850003,0.8600853237328683,0.8358196000365846,0.6496891383907225,0.8600853237328683,0,1.7992175817489624,1.0,0.6808848572488829,-0.1044528059772768,1,1.0,0,0.036772388964891434,0.05786747857928276,0.0433272048830986,0.0626332089304924,0.006554815452545881,0.00961983110755682,0.11521220207214355,1.601874828338623e-06,0.00330430269241333,0.0069503397680819035,4.336746692657471,31.21678352355957,1.1477773189544678,0.001860645948909223,0.023849857971072197,11.625905990600586,192.872314453125,1.1493768692016602,0.0021012728102505207,0.028714124113321304,10.451264381408691,160.6294708251953,937.0,0.11521220207214355,0.0911828875541687,71923.3515625,0.1269698292016983,6.175727367401123,0.19974137842655182,0.003365894081071019,0.007920367643237114,0.6035192608833313,9.254115866497159e-05
f01,window50,50,0,normal,Second Rest,2013-06-12 16:51:16,2013-06-12 16:52:16,1.0,0.0,1.0,1.0,0.0,0.0,0,0,0.02109375,0,64,0,1.0,0.9682539682539683,1.0,0.9280753968253969,0.8358026646820951,0.8251916468143463,0.5504507422447205,0.6128191766545076,1,0.7583276662048762,0.7509510453476934,0.5044970914348811,0.1151168597677009,0.7583276662048762,0,1.099344253540039,1.0,0.7380423867062159,-0.0942752316496992,1,1.0,0,0.034497279673814774,0.09447028487920761,0.040696095675230026,0.10269148647785187,0.006198815535753965,0.013525153510272503,0.21140462160110474,2.561137080192566e-08,0.0025948327966034412,0.004936228506267071,7.48150110244751,80.66233825683594,1.9752576351165771,0.0028964581433683634,0.017068203538656235,13.588583946228027,235.1083526611328,2.0707404613494873,0.0030424436554312706,0.020239144563674927,12.495528221130371,203.9551239013672,892.0,0.21140462160110474,0.1268465667963028,8254326.5,0.1974487453699112,5.856165409088135,0.11226339638233185,0.006458137184381485,0.00826114322990179,0.6656014919281006,0.00018292978347744793
f01,window51,51,0,normal,Second Rest,2013-06-12 16:51:46,2013-06-12 16:52:46,1.0,0.0,1.0,1.0,0.0,0.0,0,0,0.021614583333333333,0,67,0,1.0,0.9090909090909091,1.0,0.9010416666666666,0.8650023502597342,0.798666775226593,0.4300599992275238,0.587285044293903,1,0.7728183450485443,0.6179629625663087,0.45633997691053096,0.2940072409823254,0.7728183450485443,0,0.7058000564575195,0.7058000564575195,0.7525570630685319,0.18284449764133504,1,1.0,0,0.03300677612423897,0.10418425500392914,0.038756199181079865,0.11175533384084702,0.005749422125518322,0.010873868130147457,0.14011186361312866,6.128102540969849e-07,0.0029214262031018734,0.0051336465403437614,6.496716499328613,57.304447174072266,2.2330338954925537,0.003214390017092228,0.017839860171079636,14.392539978027344,254.73365783691406,2.341301202774048,0.0035799681209027767,0.021727724000811577,13.737951278686523,234.02020263671875,926.0,0.14011186361312866,0.12099754810333252,228638.25,0.14010089635849,6.038325786590576,0.09466878324747086,0.004942771513015032,0.0071597048081457615,0.6219731569290161,0.00011824101238744333
f01,window52,52,0,normal,Second Rest,2013-06-12 16:52:16,2013-06-12 16:53:16,1.0,0.0,1.0,1.0,0.0,0.0,0,0,0.025520833333333333,0,63,0,1.0,0.9193548387096774,1.0,0.9591733870967742,0.8417414097045914,1.0,0.32392919063568115,0.491401771756123,1,-0.039705694753919475,0.054142004342895345,0.006497653213159638,-0.07483174694252016,0.054142004342895345,0,0.19267192482948303,0.19267192482948303,0.8009971659123002,0.743569879209568,1,1.0,0,0.028719518333673477,0.034837424755096436,0.03487550839781761,0.040890663862228394,0.006155989598482847,0.010349584743380547,0.13947056233882904,1.3675540685653687e-05,0.003329564817249775,0.006009493488818407,6.262504577636719,58.03351593017578,0.6298463940620422,0.00464641535654664,0.022024795413017273,10.676739692687988,153.52088928222656,0.6798206567764282,0.0053085749968886375,0.026631638407707214,9.287907600402832,118.35285949707031,890.0,0.13947056233882904,0.11845497786998749,10198.541015625,0.12905900180339813,6.0875654220581055,0.19781649112701416,0.004299446474760771,0.007391987834125757,0.5997152924537659,0.00010711391223594546
f01,window53,53,0,normal,Second Rest,2013-06-12 16:52:46,2013-06-12 16:53:46,1.0,0.0,1.0,1.0,0.0,0.0,0,0,0.029427083333333333,0,60,0,1.0,0.9830508474576272,1.0,1.0050317796610169,0.8233636106301263,1.0,0.2985832989215851,0.4898384575299635,1,-0.4050027625992128,-0.33792110281002363,-0.12816294129404357,-0.02711710003228221,-0.02711710003228221,0,0.16866973042488098,0.16866973042488098,0.8233624491296007,0.7820864264699388,1,1.0,0,0.02552739903330803,0.01719703897833824,0.030741041526198387,0.021327169612050056,0.005213640630245209,0.008360029198229313,0.13701340556144714,4.308298230171204e-06,0.003037016838788986,0.004898840561509132,7.43723726272583,88.82144165039062,0.16756479442119598,0.003377824556082487,0.02071811445057392,2.8337535858154297,13.057235717773438,0.1793714165687561,0.0034731135237962008,0.02494661882519722,2.7003273963928223,10.834010124206543,901.0,0.13701340556144714,0.08968453854322433,31802.2109375,0.08746199309825897,6.168092727661133,1.2289983034133911,0.003963579423725605,0.005970137193799019,0.5719142556190491,6.98900839779526e-05
f01,window54,54,0,normal,Second Rest,2013-06-12 16:53:16,2013-06-12 16:54:16,1.0,0.0,1.0,1.0,0.0,0.0,0,0,0.03411458333333333,0,62,0,1.0,0.9672131147540983,1.0,0.9743852459016393,0.8585436368742742,0.9284016489982605,0.2706999182701111,0.522146951537259,1,-0.29091353972675693,-0.20018531731543923,-0.09226119812479491,0.3016452532498973,0.3016452532498973,0,0.3692728579044342,0.3692728579044342,0.807521051173478,0.5676273979899289,1,1.0,0,0.026240412145853043,0.017583485692739487,0.03169834613800049,0.021538760513067245,0.005457933992147446,0.008226150646805763,0.12228667736053467,5.154870450496674e-06,0.0029380712658166885,0.005783384665846825,6.26224422454834,65.54615020751953,0.14261764287948608,0.0047269174829125404,0.02095368318259716,2.6154727935791016,10.464095115661621,0.16825225949287415,0.004751489032059908,0.025317955762147903,2.400359630584717,8.34119701385498,911.0,0.12228667736053467,0.09004883468151093,23722.55078125,0.08878478407859802,6.184765338897705,1.370527744293213,0.003591246670112014,0.006327651906758547,0.5790383219718933,6.76695563015528e-05
f01,window55,55,0,normal,Second Rest,2013-06-12 16:53:46,2013-06-12 16:54:46,1.0,0.0,1.0,1.0,0.0,0.0,0,0,0.02109375,0,66,0,1.0,0.9230769230769231,1.0,0.9163461538461538,0.8933402072906582,0.7795547842979431,0.4027906060218811,0.49609171443460137,1,0.7911332606923636,0.6724193048217012,0.48444650719673943,0.2887072036439483,0.7911332606923636,0,0.5839800834655762,0.5839800834655762,0.778834823071409,0.31116674135465106,1,1.0,0,0.035396676510572433,0.08041900396347046,0.041740935295820236,0.09061560779809952,0.006344260182231665,0.013481516391038895,0.17134547233581543,7.975846529006958e-06,0.002706436440348625,0.005255859345197678,6.459863185882568,54.96894454956055,1.1451621055603027,0.003456327598541975,0.017162494361400604,8.77452564239502,99.2917709350586,1.256760597229004,0.00392555259168148,0.020725229755043983,8.366562843322754,89.91410064697266,903.0,0.17134547233581543,0.14117947220802307,21483.044921875,0.2004668265581131,5.879213809967041,0.267311692237854,0.0061080846935510635,0.008414264768362045,0.6624055504798889,0.00018175126751884818
f01,window56,56,0,normal,Second Rest,2013-06-12 16:54:16,2013-06-12 16:55:16,1.0,0.0,1.0,1.0,0.0,0.0,0,0,0.02109375,0,68,0,1.0,0.9701492537313433,1.0,0.8887593283582089,0.900386979483109,0.7469514906406403,0.3601822555065155,0.4226159458051068,1,0.8055020070731803,0.6637439409213248,0.45186490644018745,0.3311701320082857,0.8055020070731803,0,0.584700345993042,0.584700345993042,0.7997057607381658,0.3181790476572983,1,1.0,0,0.03639702498912811,0.08016505837440491,0.04297296330332756,0.09038077294826508,0.006575935985893011,0.013563442975282669,0.16830241680145264,2.902001142501831e-06,0.0028300327248871326,0.005477677099406719,6.1942620277404785,51.189796447753906,1.12482488155365,0.0027611143887043,0.01775546558201313,8.701966285705566,97.04728698730469,1.2344413995742798,0.0033724207896739244,0.022015845403075218,8.277697563171387,87.5883560180664,864.0,0.16830241680145264,0.13866513967514038,57995.296875,0.19630937278270721,5.850996494293213,0.26912781596183777,0.0060813273303210735,0.008706703782081604,0.6612462997436523,0.00018396700033918023
f01,window57,57,0,normal,Second Rest,2013-06-12 16:54:46,2013-06-12 16:55:46,1.0,0.0,1.0,1.0,0.0,0.0,0,0,0.02578125,0,65,0,1.0,1.0,1.0,0.9189453125,0.9200264603250363,0.7580243051052094,0.1837223768234253,0.3897863470557582,1,-0.22305403970369492,-0.4674348741555884,-0.2301225027167688,-0.08794010459509187,-0.08794010459509187,0,0.1307739019393921,0.1307739019393921,0.8629305479035718,0.7887387894181692,1,1.0,0,0.02676686830818653,0.02006656862795353,0.032160691916942596,0.023703401908278465,0.005393825471401215,0.008218453265726566,0.14201608300209045,3.0491501092910767e-06,0.0031409375369548798,0.005620169453322887,7.5267438888549805,99.49966430664062,0.24246571958065033,0.005049855448305607,0.02100062184035778,3.9560697078704834,24.360258102416992,0.25223174691200256,0.005361521150916815,0.026003146544098854,3.4107656478881836,17.070844650268555,873.0,0.14201608300209045,0.0828426331281662,46575.62890625,0.08436351269483566,6.157668113708496,0.8226172924041748,0.003804804990068078,0.006170797161757946,0.571368932723999,6.754297646693885e-05
f01,window58,58,0,normal,Second Rest,2013-06-12 16:55:16,2013-06-12 16:56:16,1.0,0.0,1.0,1.0,0.0,0.0,0,0,0.021614583333333333,0,69,0,1.0,0.9558823529411765,1.0,0.8699448529411765,0.8958539748800076,0.762601226568222,0.3000697195529938,0.48619072433559146,1,0.7096630788031185,0.5488744572975847,0.6835769540638863,0.4315398242604235,0.7096630788031185,0,0.22563716769218445,0.22563716769218445,0.8285454168712544,0.675741338552226,1,1.0,0,0.03178607299923897,0.043787505477666855,0.03781287744641304,0.04897698760032654,0.006026804447174072,0.010081314481794834,0.16040650010108948,1.825392246246338e-07,0.0031586904078722,0.005977767053991556,6.976393222808838,78.14398956298828,0.6525076031684875,0.0040244730189442635,0.02140563726425171,7.546895503997803,76.57930755615234,0.6994514465332031,0.004465094767510891,0.02598830685019493,7.107069969177246,68.13533020019531,899.0,0.16040650010108948,0.0936354249715805,878750.875,0.12402178347110748,6.111144542694092,0.28139984607696533,0.004224782809615135,0.007193795405328274,0.5961528420448303,0.00010163289698539302
f01,window59,59,0,normal,Second Rest,2013-06-12 16:55:46,2013-06-12 16:56:46,1.0,0.0,1.0,1.0,0.0,0.0,0,0,0.021614583333333333,0,67,0,1.0,0.9090909090909091,1.0,0.8880208333333334,0.8970151115569397,0.686084508895874,0.30662888288497925,0.47889525794684734,1,0.7558194038951825,0.6160315846336774,0.6296550805494896,0.43306591756637175,0.7558194038951825,0,0.23303821682929993,0.23303821682929993,0.8094370754205156,0.6354639610111763,1,1.0,0,0.031154727563261986,0.04142022505402565,0.036968059837818146,0.04589633643627167,0.005813331808894873,0.008828099817037582,0.09077717363834381,2.5797635316848755e-07,0.0032110833562910557,0.005927294492721558,4.775104522705078,31.72686004638672,0.612127959728241,0.0025837707798928022,0.020913418382406235,7.316030502319336,73.89022827148438,0.656282365322113,0.0027635942678898573,0.02539781481027603,6.765126705169678,65.06414031982422,882.0,0.09077717363834381,0.08378922939300537,351881.78125,0.09854601323604584,6.135648727416992,0.30422452092170715,0.003748449729755521,0.006784012541174889,0.5828259587287903,7.793535041855648e-05
f01,window60,60,0,normal,Second Rest,2013-06-12 16:56:16,2013-06-12 16:57:16,1.0,0.0,1.0,1.0,0.0,0.0,0,0,0.027083333333333334,0,60,0,1.0,0.9830508474576272,1.0,0.9989406779661016,0.9401910749744706,0.5828107595443726,0.23756127059459686,0.44293903074517976,1,-0.2367190201914217,0.17531858872826933,0.07398660826170048,0.25996325947018734,0.25996325947018734,0,0.16961686313152313,0.16961686313152313,0.8583159751622398,0.7060488497354758,1,1.0,0,0.0255451500415802,0.022644825279712677,0.03032863326370716,0.026812853291630745,0.004783482290804386,0.008460958488285542,0.13732054829597473,5.42961061000824e-07,0.002431393601000309,0.004738133866339922,7.005716800689697,81.02961730957031,0.16728705167770386,0.003607402788475156,0.017453085631132126,2.661813974380493,9.078202247619629,0.18645693361759186,0.003797687590122223,0.020508620887994766,2.42449688911438,7.049549579620361,867.0,0.13732054829597473,0.06818581372499466,252910.5,0.0819050744175911,6.008997440338135,1.2592049837112427,0.004761944059282541,0.005946062039583921,0.6208033561706543,7.158781954785809e-05
f01,window61,61,0,normal,Second Rest,2013-06-12 16:56:46,2013-06-12 16:57:46,1.0,0.0,1.0,1.0,0.0,0.0,0,0,0.023958333333333335,0,63,0,1.0,0.967741935483871,1.0,0.9584173387096774,0.9491239010952139,0.5260045826435089,0.32246240973472595,0.5523710265763419,1,-0.045599816452568956,0.3774631167441003,-0.19883805910147626,0.0871119734098293,0.3774631167441003,0,0.46082156896591187,0.46082156896591187,0.8257517876255214,0.3982831326139302,1,1.0,0,0.023920977488160133,0.019317355006933212,0.02886042557656765,0.024146219715476036,0.004939448554068804,0.008873919025063515,0.14811760187149048,2.9578804969787598e-06,0.0025141704827547073,0.0044754985719919205,7.644636631011963,93.63713073730469,0.18166865408420563,0.004377762787044048,0.0174358282238245,3.255288600921631,15.412031173706055,0.1888357698917389,0.005090417806059122,0.021317629143595695,3.0537052154541016,12.116341590881348,837.0,0.14811760187149048,0.08001220971345901,50075.58984375,0.08633203059434891,5.996999263763428,1.0381337404251099,0.005050844978541136,0.005992090795189142,0.6058299541473389,7.874644506955519e-05
f01,window62,62,0,normal,Second Rest,2013-06-12 16:57:16,2013-06-12 16:58:16,1.0,0.0,1.0,1.0,0.0,0.0,0,0,0.022135416666666668,0,70,0,1.0,0.8985507246376812,1.0,0.8507699275362319,0.9072221967510302,0.6148187220096588,0.49264949560165405,0.6873371547681084,1,0.4099750029789571,0.49820983112514644,0.4269433601405307,0.02079911640713323,0.49820983112514644,0,0.5953162908554077,0.5953162908554077,0.7720553197948408,0.25475915622606893,1,1.0,0,0.03152242675423622,0.052184976637363434,0.037562400102615356,0.05927666276693344,0.0060399738140404224,0.011006620712578297,0.1258257031440735,8.313916623592377e-06,0.0029949797317385674,0.005417921580374241,5.835346221923828,44.68700408935547,0.5664234161376953,0.00329152075573802,0.019643636420369148,7.167948246002197,58.96088409423828,0.6164959669113159,0.003739758161827922,0.023694297298789024,6.9096221923828125,55.54093933105469,872.0,0.1258257031440735,0.11529368162155151,15134.34765625,0.13745073974132538,5.999985694885254,0.3522351086139679,0.0049550035037100315,0.0074552143923938274,0.6164484024047852,0.00012114570563426241
f01,window63,63,0,normal,Second Rest,2013-06-12 16:57:46,2013-06-12 16:58:46,1.0,0.0,1.0,1.0,0.0,0.0,0,0,0.021875,0,76,0,1.0,0.76,1.0,0.785,0.8765795417772286,0.609578400850296,0.8167165517807007,0.7238144867118291,1,0.6991770418137357,0.39194912563210815,0.8166006714507854,0.13034631691293003,0.8166006714507854,0,1.1123220920562744,1.0,0.6669738625331686,-0.20046051434311885,1,1.0,0,0.03428522124886513,0.04829515889286995,0.0403287298977375,0.05588670074939728,0.006043509114533663,0.011097334325313568,0.10394713282585144,8.03731381893158e-07,0.0025305943563580513,0.005229657515883446,4.515222549438477,26.25150489807129,0.43865352869033813,0.002957287710160017,0.01814895123243332,4.090505123138428,20.590999603271484,0.4602701663970947,0.003221839666366577,0.021246260032057762,4.0027995109558105,19.60172462463379,877.0,0.10394713282585144,0.0967833399772644,129330.6875,0.14003482460975647,5.905879020690918,0.7017996311187744,0.004984924104064703,0.008033941499888897,0.6639173030853271,0.00012315083586145192
f01,window64,64,0,normal,Second Rest,2013-06-12 16:58:16,2013-06-12 16:59:16,1.0,0.0,1.0,1.0,0.0,0.0,0,0,0.021875,0,76,0,1.0,0.76,1.0,0.7810416666666666,0.9021877444879982,0.6848426163196564,0.7317549586296082,0.6175091193329859,1,0.7229724372510475,0.602011941801766,0.7885412124470248,0.07435220453817869,0.7885412124470248,0,1.042623519897461,1.0,0.6746563233463995,-0.17524240979808636,1,1.0,0,0.03479086235165596,0.05311303213238716,0.04112045839428902,0.059903841465711594,0.006329596508294344,0.010743564926087856,0.10778787732124329,2.25752592086792e-06,0.0028204163536429405,0.005852311849594116,4.593753337860107,28.974946975708008,0.5476092100143433,0.0027017758693546057,0.019668806344270706,5.163937568664551,32.89530944824219,0.555706799030304,0.0034245012793689966,0.023380514234304428,4.8239264488220215,28.246938705444336,878.0,0.10778787732124329,0.10036048293113708,47746.01953125,0.1365184485912323,6.002276420593262,0.5389412641525269,0.004420285113155842,0.008030161261558533,0.6336119174957275,0.00011542419815668836
f01,window65,65,0,normal,Second Rest,2013-06-12 16:58:46,2013-06-12 16:59:46,1.0,0.0,1.0,1.0,0.0,0.0,0,0,0.023958333333333335,0,71,0,1.0,0.8857142857142857,1.0,0.8435267857142857,0.8811933765446415,0.7779114246368408,0.4024703800678253,0.5471599791558103,1,0.4480249772602818,0.6957466906429295,0.2681639837457159,-0.4405217542474039,0.6957466906429295,0,0.5254385471343994,0.5254385471343994,0.7660998725356668,0.3550519388752569,1,1.0,0,0.032398074865341187,0.03146250918507576,0.03871096298098564,0.03600436449050903,0.006312888115644455,0.00907927192747593,0.07830125093460083,1.596100628376007e-05,0.0032264981418848038,0.00632911641150713,3.812204599380493,19.711448669433594,0.39894556999206543,0.003278951393440366,0.023140432313084602,5.267816543579102,42.990814208984375,0.4456750750541687,0.004334970843046904,0.02884007804095745,4.797535419464111,37.15977478027344,907.0,0.07830125093460083,0.07303613424301147,4905.7841796875,0.11091316491365433,6.168337345123291,0.658388614654541,0.0033830804750323296,0.00746019184589386,0.5902184844017029,8.243318006861955e-05
f01,window66,66,0,normal,Second Rest,2013-06-12 16:59:16,2013-06-12 17:00:16,1.0,0.0,1.0,1.0,0.0,0.0,0,0,0.023958333333333335,0,64,0,1.0,0.9523809523809523,1.0,0.9350198412698413,0.8980852871275626,0.74979168176651,0.41268861293792725,0.6013548723293382,1,0.3546363004200919,0.3149842233696361,-0.23241068898568246,-0.12274554196787381,0.3546363004200919,0,0.6181004047393799,0.6181004047393799,0.7885679266167117,0.27958312319842404,1,1.0,0,0.028183311223983765,0.028141533955931664,0.034073494374752045,0.03372715041041374,0.00589018315076828,0.009701446630060673,0.1309787631034851,4.471279680728912e-06,0.0031070373952388763,0.005695465952157974,5.773123741149902,50.331336975097656,0.3915005326271057,0.0020353589206933975,0.02128698118031025,7.09210729598999,77.06841278076172,0.45463451743125916,0.0022152652963995934,0.025441627949476242,6.208004474639893,61.47968292236328,871.0,0.1309787631034851,0.08804215490818024,29293.3515625,0.11219553649425507,6.064162254333496,0.5454379320144653,0.0042626699432730675,0.007122841197997332,0.6039425134658813,9.411806968273595e-05
f01,window67,67,0,normal,Second Rest,2013-06-12 16:59:46,2013-06-12 17:00:46,1.0,0.0,1.0,1.0,0.0,0.0,0,0,0.02421875,0,61,0,1.0,1.0,1.0,0.9841145833333333,0.9623442947593404,0.5273797512054443,0.4803917109966278,0.6706618030224075,1,0.14926489705641485,-0.017904214022752434,0.10179020316136156,-0.007651394294785544,0.14926489705641485,0,0.6201447248458862,0.6201447248458862,0.8266888159432135,0.25228628664530994,1,1.0,0,0.023706769570708275,0.020983563736081123,0.028435371816158295,0.025839131325483322,0.004728602711111307,0.008342902176082134,0.16126051545143127,2.493150532245636e-06,0.0025003934279084206,0.00470336526632309,9.72103500366211,156.5679931640625,0.18624486029148102,0.002834756625816226,0.017865119501948357,3.5438714027404785,16.339563369750977,0.2156876027584076,0.0029829517006874084,0.021475844085216522,3.534674644470215,16.005117416381836,826.0,0.16126051545143127,0.0739203542470932,64681.421875,0.07596202194690704,6.019539833068848,1.0444811582565308,0.004979328252375126,0.0056371502578258514,0.5953477025032043,6.960402242839336e-05
f01,window68,68,0,normal,Second Rest,2013-06-12 17:00:16,2013-06-12 17:01:16,1.0,0.0,1.0,1.0,0.0,0.0,0,0,0.02265625,0,62,0,1.0,1.0,1.0,0.9664446721311475,0.9690101919282587,0.5038098692893982,0.478739857673645,0.6977592496091715,1,0.31554687036004453,0.4264577053897916,-0.1430741100452869,-0.17688187158461174,0.4264577053897916,0,0.6182901859283447,0.6182901859283447,0.828874038985643,0.24991482937606957,1,1.0,0,0.026016954332590103,0.03147413581609726,0.031159598380327225,0.03609748184680939,0.005142644513398409,0.008172160014510155,0.08682292699813843,9.164214134216309e-07,0.0026185763999819756,0.00506975594907999,5.134864807128906,37.75353240966797,0.8159445524215698,0.004368389490991831,0.019576147198677063,17.869346618652344,437.7204284667969,0.8996097445487976,0.005156259052455425,0.023370245471596718,15.908040046691895,369.6896667480469,902.0,0.08682292699813843,0.08366519212722778,94741.2734375,0.0840943455696106,6.1190009117126465,0.07932037115097046,0.00390823557972908,0.006168203428387642,0.5990463495254517,6.67841886752285e-05
f01,window69,69,0,normal,Second Rest,2013-06-12 17:00:46,2013-06-12 17:01:46,1.0,0.0,1.0,1.0,0.0,0.0,0,0,0.021875,0,69,0,1.0,0.75,1.0,0.8644301470588235,0.9134910436310621,0.6192156076431274,0.9288182258605957,0.7347576862949453,1,0.7221195568004074,0.7944047036297999,0.6998547387612051,0.33713779336442606,0.7944047036297999,0,1.4722514152526855,1.0,0.6740473130893186,-0.1918233371814526,1,1.0,0,0.03957035765051842,0.09241323918104172,0.046822577714920044,0.10824376344680786,0.0072522214613854885,0.020556487143039703,0.5099703073501587,3.5958364605903625e-06,0.0028949296101927757,0.0060826996341347694,16.927541732788086,387.7608642578125,1.701863408088684,0.0029293436091393232,0.018809674307703972,11.408356666564941,170.9339599609375,2.2118337154388428,0.0029513072222471237,0.023150373250246048,12.352724075317383,206.8516082763672,933.0,0.5099703073501587,0.1701682209968567,141822.4375,0.4433278739452362,5.827934741973877,0.14873184263706207,0.00968321692198515,0.00973895750939846,0.6707268357276917,0.00042256913729943335
f01,window70,70,0,normal,Second Rest,2013-06-12 17:01:16,2013-06-12 17:02:16,1.0,0.0,1.0,1.0,0.0,0.0,0,0,0.023177083333333334,0,75,0,1.0,0.6486486486486487,1.0,0.7899070945945946,0.8035817809484823,0.8563548922538757,1.0441831350326538,0.7040125065138093,1,0.6515838016405507,0.7820247769189375,0.6967670924091715,0.29282685206110315,0.7820247769189375,0,1.56630277633667,1.0,0.6005339937440041,-0.19042123710481595,1,1.0,0,0.03683602809906006,0.07573451101779938,0.044773124158382416,0.09001633524894714,0.007937096059322357,0.01819390244781971,0.45431482791900635,3.1851232051849365e-07,0.0039105601608753204,0.0072652362287044525,16.48774528503418,382.6021423339844,1.5161304473876953,0.0036808408331125975,0.0230189710855484,13.728265762329102,230.99819946289062,1.9704452753067017,0.003740968182682991,0.02771085873246193,14.386900901794434,263.98516845703125,953.0,0.45431482791900635,0.15165722370147705,1426365.0,0.37549686431884766,6.049075126647949,0.09644223004579544,0.006562921684235334,0.009903231635689735,0.6232027411460876,0.00033101809094659984
f01,window71,71,0,normal,Second Rest,2013-06-12 17:01:46,2013-06-12 17:02:46,1.0,0.0,1.0,1.0,0.0,0.0,0,0,0.022135416666666668,0,69,0,1.0,0.7647058823529411,1.0,0.8664981617647058,0.9016381036110502,1.0,0.5941187739372253,0.5622720166753518,1,0.6451016241393317,0.48344507441722195,0.5671583312949007,0.08152483555293924,0.6451016241393317,0,0.9902942776679993,0.9902942776679993,0.6773443562576916,-0.08547298705935447,1,1.0,0,0.04086686670780182,0.13541792333126068,0.047619935125112534,0.1500709056854248,0.006753069348633289,0.01719685271382332,0.22637546062469482,1.5944242477416992e-06,0.002606688067317009,0.005348260514438152,7.883049964904785,77.91619110107422,1.620766282081604,0.0016418426530435681,0.017115140333771706,9.30058479309082,92.77693176269531,1.802744746208191,0.002411595545709133,0.020533110946416855,9.17538833618164,90.59683990478516,877.0,0.22637546062469482,0.19720852375030518,141979.4375,0.29935139417648315,5.682666778564453,0.16894879937171936,0.00853453017771244,0.009456136263906956,0.6993377804756165,0.0002957317337859422
f01,window72,72,0,normal,Second Rest,2013-06-12 17:02:16,2013-06-12 17:03:16,1.0,0.0,1.0,1.0,0.0,0.0,0,0,0.022135416666666668,0,61,0,1.0,0.9,1.0,0.9807291666666667,0.9594292545249123,1.0,0.31191274523735046,0.33194372068785827,1,0.6489568478855597,0.49385298959183316,0.6184251340270583,0.5586639196083323,0.6489568478855597,0,0.41283097863197327,0.41283097863197327,0.8065456784942764,0.5470263349992548,1,1.0,0,0.036615144461393356,0.13506615161895752,0.042652953416109085,0.148740753531456,0.006037809886038303,0.016823021695017815,0.20017671585083008,5.956739187240601e-06,0.0021060872822999954,0.004171101842075586,7.3257832527160645,63.59260940551758,1.5900238752365112,0.001594128436408937,0.014149856753647327,9.247491836547852,91.01960754394531,1.7443268299102783,0.002347997622564435,0.016889601945877075,9.017090797424316,86.95418548583984,851.0,0.20017671585083008,0.1837935447692871,33605.08203125,0.2718682587146759,5.5308685302734375,0.14214947819709778,0.010297708213329315,0.008672231808304787,0.7173165082931519,0.0002830140292644501
f01,window73,73,0,normal,Second Rest,2013-06-12 17:02:46,2013-06-12 17:03:46,1.0,0.0,1.0,1.0,0.0,0.0,0,0,0.02578125,0,58,0,1.0,0.9824561403508771,1.0,1.0361842105263157,0.8928717431055434,1.0,0.05153563991189003,0.09484106305367379,1,0.4968958921143169,0.6690255844483689,0.13552898312032935,0.27860936455884877,0.6690255844483689,0,0.14788506925106049,0.14788506925106049,0.8460554721469079,0.8200697086305886,1,1.0,0,0.024422595277428627,0.03117021732032299,0.029108688235282898,0.035801809281110764,0.004686092492192984,0.009375960566103458,0.1688387244939804,4.703644663095474e-06,0.002304472029209137,0.004028404131531715,9.119243621826172,128.45103454589844,0.5707481503486633,0.0023535301443189383,0.015490819700062275,8.653904914855957,124.50878143310547,0.6197108626365662,0.002462563803419471,0.01837240532040596,7.4831929206848145,97.89542388916016,801.0,0.1688387244939804,0.07240545004606247,35895.296875,0.08800435066223145,5.894586563110352,0.2863757014274597,0.006246221251785755,0.005792852491140366,0.6173182129859924,8.790863648755476e-05
f01,window74,74,0,normal,Second Rest,2013-06-12 17:03:16,2013-06-12 17:04:16,1.0,0.0,1.0,1.0,0.0,0.0,0,0,0.021875,0,59,0,1.0,0.9310344827586207,1.0,1.0299030172413792,0.8766685209886231,1.0,0.20866958796977997,0.12089630015633142,1,0.7907905659692201,0.7695189559650754,0.8056371581192902,0.8202202618645213,0.8202202618645213,0,0.5521803498268127,0.5521803498268127,0.7801963144173539,0.39629712524792926,1,1.0,0,0.03356821835041046,0.11122388392686844,0.039798539131879807,0.13253353536128998,0.006230320781469345,0.0239694993942976,0.37136542797088623,8.009374141693115e-08,0.0017771590501070023,0.0036252005957067013,9.919191360473633,114.35079193115234,1.296887755393982,0.0019820143934339285,0.013804443180561066,9.173251152038574,88.98094177246094,1.5464658737182617,0.002090551657602191,0.016194766387343407,9.15024185180664,88.8628158569336,847.0,0.37136542797088623,0.2673302888870239,4636635.0,0.5195106267929077,5.183291435241699,0.15532711148262024,0.01865549571812153,0.009501561522483826,0.7616256475448608,0.0005745369126088917
f01,window75,75,0,normal,Second Rest,2013-06-12 17:03:46,2013-06-12 17:04:46,1.0,0.0,1.0,1.0,0.0,0.0,0,0,0.02421875,0,72,0,1.0,0.7464788732394366,1.0,0.8382482394366197,0.7862237536907852,0.825556755065918,0.6675392389297485,0.3944762897342366,1,0.8009482835895054,0.816772164426529,0.7772922148534168,0.9128914360972323,0.9128914360972323,1,0.9374272227287292,0.9374272227287292,0.6407159531301373,-0.11053843356772242,1,1.0,0,0.03880606219172478,0.10650306195020676,0.04596489667892456,0.12028761953115463,0.007158832624554634,0.016785236075520515,0.28126442432403564,4.892237484455109e-06,0.003157675266265869,0.005974514409899712,9.002151489257812,111.54290008544922,1.3312994241714478,0.0037592321168631315,0.02040094882249832,9.998047828674316,105.31666564941406,1.6051102876663208,0.00468920124694705,0.024673648178577423,9.989889144897461,106.85144805908203,883.0,0.28126442432403564,0.18131756782531738,57491.98046875,0.29403284192085266,5.831482887268066,0.09001059085130692,0.0073585123755037785,0.00947577878832817,0.6610747575759888,0.0002817441418301314
f01,window76,76,0,normal,Second Rest,2013-06-12 17:04:16,2013-06-12 17:05:16,1.0,0.0,1.0,1.0,0.0,0.0,0,0,0.021614583333333333,0,73,0,1.0,0.7638888888888888,1.0,0.8296440972222222,0.8994514616370687,0.4767780303955078,0.5126625299453735,0.47212089630015636,1,0.8106218829654227,0.7694304182828198,0.6604516300015458,0.8072570125692515,0.8106218829654227,0,0.7837584018707275,0.7837584018707275,0.6970151538596033,-0.010534362195916858,1,1.0,0,0.030959786847233772,0.0287332683801651,0.03766365721821785,0.03417427837848663,0.006703872233629227,0.00953131914138794,0.09000493586063385,5.880370736122131e-06,0.0034702839329838753,0.006369804497808218,3.500701904296875,17.591060638427734,0.40632256865501404,0.0020618275739252567,0.021504953503608704,4.675717830657959,41.268043518066406,0.440332293510437,0.0027180176693946123,0.026148177683353424,3.917653799057007,28.80753517150879,902.0,0.09000493586063385,0.08643648028373718,15305.9970703125,0.12248072773218155,6.153761386871338,0.6604498028755188,0.0033496792893856764,0.008015048690140247,0.5971297025680542,9.08460424398072e-05
f01,window77,77,0,normal,Second Rest,2013-06-12 17:04:46,2013-06-12 17:05:46,1.0,0.0,1.0,1.0,0.0,0.0,0,0,0.026041666666666668,0,62,0,1.0,0.9672131147540983,1.0,0.9746413934426229,0.9104902110706214,0.6172953844070435,0.14978080987930298,0.3418447107868682,1,0.7038925708926832,0.6253447456002869,0.38440969941529335,-0.14003315752154086,0.7038925708926832,0,0.20704351365566254,0.20704351365566254,0.8393279578572594,0.6650668196399832,1,1.0,0,0.025720013305544853,0.02190164104104042,0.03117038682103157,0.027390407398343086,0.0054503739811480045,0.009849516674876213,0.13827039301395416,1.1529773473739624e-06,0.0026879925280809402,0.004904859699308872,6.314727783203125,59.9037971496582,0.24401633441448212,0.004232959821820259,0.018815234303474426,3.4608850479125977,20.083534240722656,0.2802479565143585,0.004386591259390116,0.022258229553699493,3.2200767993927,15.819953918457031,838.0,0.13827039301395416,0.1013517752289772,119924.640625,0.1061909943819046,5.955371856689453,0.8427932858467102,0.0050903428345918655,0.006806163117289543,0.623630702495575,9.701298404252157e-05
f01,window78,78,0,normal,Second Rest,2013-06-12 17:05:16,2013-06-12 17:06:16,1.0,0.0,1.0,1.0,0.0,0.0,0,0,0.022135416666666668,0,70,0,1.0,0.7391304347826086,1.0,0.8521286231884058,0.8243882723807259,0.9592701196670532,0.40127813816070557,0.4450234497133924,1,0.676652147450292,0.7686984328305313,0.5813497144047867,0.394812248146877,0.7686984328305313,0,0.4852980375289917,0.4852980375289917,0.694438851874362,0.3823556909177357,1,1.0,0,0.03251946344971657,0.04299718886613846,0.03918899595737457,0.050108447670936584,0.006669533904641867,0.01147181075066328,0.12933215498924255,7.022172212600708e-07,0.0032073715701699257,0.006282441318035126,4.8277411460876465,31.76611328125,0.4850830137729645,0.002351007191464305,0.01958172209560871,5.1721625328063965,35.03441619873047,0.614415168762207,0.003215988865122199,0.023837300017476082,5.018033027648926,35.628482818603516,849.0,0.12933215498924255,0.09564121067523956,184176.84375,0.14949627220630646,5.9720139503479,0.5664072632789612,0.004662555642426014,0.00839815754443407,0.6288495063781738,0.0001316024427069351
f01,window79,79,0,normal,Second Rest,2013-06-12 17:05:46,2013-06-12 17:06:46,1.0,0.0,1.0,1.0,0.0,0.0,0,0,0.021354166666666667,0,71,0,1.0,0.7714285714285715,1.0,0.8332589285714286,0.9006573860945771,0.9070628881454468,0.7694481611251831,0.6414799374674309,1,0.6249741014416658,0.7394122499718286,0.7366617014237103,0.30215391089992416,0.7394122499718286,0,0.7885509729385376,0.7885509729385376,0.6999135471059479,0.09480766705003973,1,1.0,0,0.03329597786068916,0.04732586070895195,0.039726126939058304,0.05584193393588066,0.0064301504753530025,0.011420223861932755,0.15117526054382324,3.501772880554199e-07,0.0032415101304650307,0.005797149613499641,6.288188457489014,57.090972900390625,0.5670104026794434,0.0030454639345407486,0.020018059760332108,6.032969951629639,46.71816635131836,0.7181856632232666,0.0037759249098598957,0.024292347952723503,6.329257965087891,53.35363006591797,908.0,0.15117526054382324,0.13450530171394348,431710.625,0.155965656042099,6.060235977172852,0.41432473063468933,0.004575252067297697,0.007907888852059841,0.6142297983169556,0.00013042151113040745
f01,window80,80,0,normal,Second Rest,2013-06-12 17:06:16,2013-06-12 17:07:16,1.0,0.0,1.0,1.0,0.0,0.0,0,0,0.021354166666666667,0,73,0,1.0,0.7361111111111112,1.0,0.8270399305555556,0.8649092002086852,0.8403596580028534,1.2263141870498657,0.7795726941115164,1,0.7021635610468093,0.5716087246961704,0.7521489785071512,0.6396926165850542,0.7521489785071512,0,1.9294075965881348,1.0,0.6539172045070499,-0.15284945211378198,1,1.0,0,0.03848083317279816,0.09957999736070633,0.04543893784284592,0.1088038980960846,0.006958103738725185,0.014126324094831944,0.19272348284721375,1.2414529919624329e-06,0.003440781496465206,0.006464957259595394,7.4708662033081055,74.33203887939453,1.5969542264938354,0.0038429528940469027,0.020112160593271255,11.91351318359375,167.71705627441406,1.759936809539795,0.004398683086037636,0.025132501497864723,11.266157150268555,153.74012756347656,895.0,0.19272348284721375,0.16298258304595947,155240.265625,0.2219315618276596,5.95905876159668,0.16970431804656982,0.0057225716300308704,0.008828077465295792,0.6336649656295776,0.00019955301831942052
f01,window81,81,0,normal,Second Rest,2013-06-12 17:06:46,2013-06-12 17:07:46,1.0,0.0,1.0,1.0,0.0,0.0,0,0,0.022135416666666668,0,83,0,1.0,0.6097560975609756,1.0,0.7183689024390244,0.7922554467382722,0.777534157037735,1.443501353263855,0.8150078165711307,1,0.7257812313127225,0.6831180512655226,0.7620036505828314,0.41026269828917034,0.7620036505828314,0,2.245313882827759,1.0,0.581579073045872,-0.22462576978770543,1,1.0,0,0.040355853736400604,0.0952373743057251,0.04739674553275108,0.10190914571285248,0.0070408922620117664,0.01271503884345293,0.19419242441654205,5.2852556109428406e-06,0.0035489611327648163,0.006311796139925718,7.083768844604492,76.54694366455078,1.4402973651885986,0.0036032169591635466,0.020451489835977554,10.197216987609863,126.71276092529297,1.5523381233215332,0.004046154208481312,0.025411659851670265,9.521787643432617,113.51525115966797,919.0,0.19419242441654205,0.14800456166267395,36742.296875,0.19413542747497559,6.066051006317139,0.20308956503868103,0.004636799916625023,0.008702312596142292,0.6173111796379089,0.00016167221474461257
f01,window82,82,0,normal,Second Rest,2013-06-12 17:07:16,2013-06-12 17:08:16,1.0,0.0,1.0,1.0,0.0,0.0,0,0,0.022135416666666668,0,86,0,1.0,0.6352941176470588,1.0,0.6963235294117647,0.8383902542108627,0.8581889271736145,1.664607286453247,0.7972902553413236,1,0.7838795353889646,0.699101465694137,0.8228167096083471,0.876677273989387,0.876677273989387,0,2.4513707160949707,1.0,0.6056347233220823,-0.18526696935976306,1,1.0,0,0.03821725770831108,0.050751566886901855,0.04594218730926514,0.05615416169166565,0.0077249291352927685,0.010301889851689339,0.08190435916185379,6.083399057388306e-06,0.004121670499444008,0.007731568068265915,2.9801125526428223,12.107405662536621,0.935001015663147,0.003931903745979071,0.025633899495005608,9.837952613830566,149.782470703125,0.9560087323188782,0.004575423430651426,0.030192239210009575,8.486120223999023,117.90303039550781,937.0,0.08190435916185379,0.07811737060546875,13463.5849609375,0.15535785257816315,6.225732326507568,0.2926643490791321,0.0029652751982212067,0.009095805697143078,0.5881023406982422,0.000106128936749883
f02,window1,1,1,stress,TMCT,2013-06-12 17:41:54,2013-06-12 17:42:54,1.0,1.0,0.0,1.0,0.0,0.0,0,0,0.021875,0,78,0,1.0,0.7662337662337663,1.0,0.765827922077922,0.868440360815778,0.9638572335243225,0.5407947897911072,0.4491922876498176,1,0.803103969394995,0.7221208473581905,0.8795929795495658,0.82464137734945,0.8795929795495658,0,0.7688753008842468,0.7688753008842468,0.6901380846498153,0.11906922757090821,1,1.0,0,0.03937632218003273,0.07355004549026489,0.046658728271722794,0.08322574943304062,0.007282407954335213,0.014553949236869812,0.21909180283546448,4.51505184173584e-06,0.0031767869368195534,0.006635171361267567,6.941744327545166,70.0097427368164,1.1956663131713867,0.002841964829713106,0.02208370715379715,8.242894172668457,95.37413024902344,1.327325463294983,0.0036857170052826405,0.026479404419660568,7.813832759857178,86.19451141357422,958.0,0.21909180283546448,0.13659334182739258,48524.7578125,0.25372716784477234,6.003574848175049,0.23406341671943665,0.005212978459894657,0.009458724409341812,0.6487450003623962,0.000211817430681549
f02,window2,2,1,stress,TMCT,2013-06-12 17:42:24,2013-06-12 17:43:24,1.0,1.0,0.0,1.0,0.0,0.0,0,0,0.021875,0,77,0,1.0,0.8157894736842105,1.0,0.7754934210526315,0.8600679803238159,1.0,0.5198997855186462,0.4319958311620636,1,0.8921730134469346,0.7198439224891643,0.8958314005873074,0.8560670078654405,0.8958314005873074,0,0.751886785030365,0.751886785030365,0.7091475050677924,0.15786705215585206,1,1.0,0,0.040409550070762634,0.07509872317314148,0.047530367970466614,0.08466949313879013,0.00712081603705883,0.013091928325593472,0.22643637657165527,3.88268381357193e-06,0.003211977891623974,0.006672541610896587,7.1270294189453125,90.42041015625,0.969626784324646,0.003346131881698966,0.020570343360304832,7.401304244995117,71.37879943847656,1.1960631608963013,0.0036475437227636576,0.023790128529071808,7.470296382904053,75.18614959716797,947.0,0.22643637657165527,0.09668999910354614,58319.55078125,0.21033306419849396,6.032926082611084,0.33357691764831543,0.004625387489795685,0.009230552241206169,0.6474542617797852,0.00017139859846793115
f02,window3,3,1,stress,TMCT,2013-06-12 17:42:54,2013-06-12 17:43:54,1.0,1.0,0.0,1.0,0.0,0.0,0,0,0.021614583333333333,0,86,0,1.0,0.7411764705882353,1.0,0.7022058823529411,0.8358590506563373,0.9434171617031097,0.5988634824752808,0.4669098488796248,1,0.7530060993728801,0.7864534453935466,0.5918376018183676,-0.09892371541998604,0.7864534453935466,0,0.8514527678489685,0.8514527678489685,0.6620830266472986,0.015719226417363785,1,1.0,0,0.03807902708649635,0.06822475045919418,0.045319363474845886,0.07757876813411713,0.007240338250994682,0.0137542225420475,0.2303156852722168,7.329508662223816e-07,0.00306513998657465,0.007181717082858086,7.734392166137695,96.22636413574219,0.8172183036804199,0.0030330310110002756,0.019890330731868744,6.376908302307129,51.7252082824707,1.0475339889526367,0.003243344137445092,0.025109264999628067,6.492286205291748,56.696075439453125,910.0,0.2303156852722168,0.15310180187225342,314230.71875,0.21985703706741333,5.987814426422119,0.38064998388290405,0.0050645386800169945,0.009374451823532581,0.6466652154922485,0.00018917863781098276
f02,window4,4,1,stress,TMCT,2013-06-12 17:43:24,2013-06-12 17:44:24,1.0,1.0,0.0,1.0,0.0,0.0,0,0,0.022916666666666665,0,91,0,1.0,0.7444444444444445,1.0,0.6545138888888888,0.8677039698529451,0.8629437685012817,0.813694953918457,0.6039603960396039,1,0.8585033945221985,0.7986265470629774,0.6785754096103463,-0.18637261116572146,0.8585033945221985,0,1.331087350845337,1.0,0.6580889687336614,-0.14400473207810993,1,1.0,0,0.03914925828576088,0.050329145044088364,0.04674016684293747,0.056331291794776917,0.00759090855717659,0.011456781066954136,0.16268384456634521,6.03310763835907e-06,0.004092773422598839,0.007803571410477161,5.085160255432129,44.99015808105469,0.7220800518989563,0.005040058400481939,0.025331348180770874,5.985082626342773,54.513084411621094,0.7242730855941772,0.005677300505340099,0.03097037971019745,5.1832990646362305,39.66938018798828,955.0,0.16268384456634521,0.09133411943912506,26965.181640625,0.18038013577461243,6.19490385055542,0.40447133779525757,0.003432372584939003,0.00908526312559843,0.5978039503097534,0.00013125782425049692
f02,window5,5,1,stress,TMCT,2013-06-12 17:43:54,2013-06-12 17:44:54,1.0,1.0,0.0,1.0,0.0,0.0,0,0,0.021614583333333333,0,89,0,1.0,0.7613636363636364,1.0,0.6722301136363636,0.8570229102603676,0.9057631492614746,0.7456439137458801,0.5742574257425742,1,0.8513456154756927,0.5984862327249473,0.8652571234005928,0.8600139745156758,0.8652571234005928,0,1.2171282768249512,1.0,0.6616523276235647,-0.13089439421044857,1,1.0,0,0.040304966270923615,0.05520063638687134,0.04811612889170647,0.06388237327337265,0.007811164017766714,0.013206279836595058,0.2161242663860321,1.5739351511001587e-07,0.0039103273302316666,0.007561186328530312,7.028172492980957,82.96588134765625,0.6935705542564392,0.0052170660346746445,0.025767089799046516,6.2267045974731445,54.315338134765625,0.7678785920143127,0.005524173844605684,0.0319366455078125,6.039328575134277,51.164207458496094,961.0,0.2161242663860321,0.15223956108093262,1373146.0,0.22623872756958008,6.157510280609131,0.42263659834861755,0.004015028942376375,0.00947490707039833,0.6058666706085205,0.00017440583906136453
f02,window6,6,1,stress,TMCT,2013-06-12 17:44:24,2013-06-12 17:45:24,1.0,1.0,0.0,1.0,0.0,0.0,0,0,0.022916666666666665,0,85,0,1.0,0.7976190476190477,1.0,0.7012648809523809,0.8689315491231113,0.9310546517372131,0.7703162431716919,0.570088587806149,1,0.8752522967414093,0.7092152581811993,0.9261172042064676,0.8730123938061666,0.9261172042064676,1,1.2029149532318115,1.0,0.6797270837845525,-0.1107177354992046,1,1.0,0,0.04311101511120796,0.06664536893367767,0.05098183453083038,0.07779542356729507,0.007870820350944996,0.01565937139093876,0.26363685727119446,5.213543772697449e-06,0.0033560730516910553,0.007365791127085686,8.381316184997559,107.60919189453125,0.7617925405502319,0.0036648849491029978,0.023978427052497864,5.585012912750244,41.28133773803711,0.9658914804458618,0.004276045132428408,0.02961244061589241,5.723128318786621,44.35987091064453,945.0,0.26363685727119446,0.20409893989562988,50567.6875,0.2902716100215912,6.010731220245361,0.47050774097442627,0.005246878135949373,0.010180464014410973,0.6460375189781189,0.00024521592422388494
f02,window7,7,1,stress,TMCT,2013-06-12 17:44:54,2013-06-12 17:45:54,1.0,1.0,0.0,1.0,0.0,0.0,0,0,0.020572916666666666,0,80,0,1.0,0.8354430379746836,1.0,0.7458465189873418,0.9221392867118539,1.0,0.6704555153846741,0.5117248566961959,1,0.8119310599430566,0.7236367506275249,0.8089097656797334,0.6573402483579762,0.8119310599430566,0,1.0006458759307861,1.0,0.7108190012034296,-0.06883226692963151,1,1.0,0,0.039416342973709106,0.0584971122443676,0.04644365981221199,0.06725264340639114,0.007027319632470608,0.012293794192373753,0.17491415143013,4.7497451305389404e-07,0.0032287724316120148,0.006590675562620163,5.7113871574401855,51.2141227722168,0.537934422492981,0.00341106578707695,0.022265253588557243,4.514862537384033,24.43906021118164,0.6046134829521179,0.00418648449704051,0.026437856256961823,4.588064670562744,25.747539520263672,973.0,0.17491415143013,0.11123162508010864,368260.09375,0.19510655105113983,6.097336769104004,0.5934904217720032,0.004173176363110542,0.008924406953155994,0.6343268156051636,0.00015113738481886685
f02,window8,8,1,stress,TMCT,2013-06-12 17:45:24,2013-06-12 17:46:24,1.0,1.0,0.0,1.0,0.0,0.0,0,0,0.0234375,0,78,0,1.0,0.8051948051948052,1.0,0.7692775974025974,0.9216112611211246,1.0,0.526216983795166,0.41010943199583116,1,0.7411643376241016,0.5893708946893722,0.8407472978747376,0.800283591565957,0.8407472978747376,0,0.7325745820999146,0.7325745820999146,0.7253038422042681,0.18938667473880821,1,1.0,0,0.037289172410964966,0.05821184441447258,0.04449418932199478,0.06650565564632416,0.007205016445368528,0.012831616215407848,0.18454509973526,9.027309715747833e-06,0.003382280468940735,0.006231218576431274,6.247323036193848,59.85198974609375,0.6387603878974915,0.0037751682102680206,0.021899767220020294,5.950591087341309,45.059661865234375,0.6842575669288635,0.004486012272536755,0.026717249304056168,5.751630783081055,42.12240982055664,902.0,0.18454509973526,0.13211163878440857,20442.978515625,0.19533950090408325,6.033203125,0.4470883011817932,0.004624950233846903,0.009037106297910213,0.6264445781707764,0.00016465038061141968
f02,window9,9,1,stress,TMCT,2013-06-12 17:45:54,2013-06-12 17:46:54,1.0,1.0,0.0,1.0,0.0,0.0,0,0,0.023177083333333334,0,81,0,0.9875,0.7875,0.9875,0.7392578125,0.8571325469775886,0.9502391219139099,0.6957398056983948,0.5091193329859302,1,0.844959211448408,0.7399264479960994,0.8370149875967149,0.8435783193579064,0.844959211448408,0,0.970802366733551,0.970802366733551,0.6725595274199215,-0.08520944951067644,1,1.0,0,0.04125172272324562,0.07153104245662689,0.048850446939468384,0.08065207302570343,0.007598723750561476,0.0129018509760499,0.18417954444885254,6.835907697677612e-07,0.0037344302982091904,0.007464041002094746,6.344059467315674,62.68870544433594,1.2093944549560547,0.0008788262493908405,0.024623412638902664,8.455540657043457,102.76560974121094,1.3935739994049072,0.0009937537834048271,0.02980748936533928,8.397014617919922,104.89950561523438,936.0,0.18417954444885254,0.15166914463043213,269429.53125,0.20984965562820435,6.116477966308594,0.2646941840648651,0.0041483487002551556,0.009306537918746471,0.611720860004425,0.00016645774303469807
f02,window10,10,1,stress,TMCT,2013-06-12 17:46:24,2013-06-12 17:47:24,1.0,1.0,0.0,1.0,0.0,0.0,0,0,0.021614583333333333,0,80,0,1.0,0.8607594936708861,1.0,0.7472310126582279,0.8480592584755995,1.0,0.6575145721435547,0.5518499218342887,1,0.7818941079390844,0.6480976301259046,0.7925840791869591,0.8392498185668813,0.8392498185668813,0,0.978830099105835,0.978830099105835,0.7008385651004508,-0.05858743638566932,1,1.0,0,0.04022480919957161,0.08086086809635162,0.048017460852861404,0.09499236941337585,0.007792649790644646,0.016991985961794853,0.31080901622772217,4.903413355350494e-07,0.003396708518266678,0.006715337745845318,9.350775718688965,130.60926818847656,1.4980218410491943,0.000938274257350713,0.021290265023708344,11.501480102539062,177.4661865234375,1.8088308572769165,0.0010596452048048377,0.026343416422605515,11.702875137329102,184.96417236328125,956.0,0.31080901622772217,0.1969517469406128,633862.5625,0.33407703042030334,5.968916416168213,0.1860949546098709,0.006019501015543938,0.01018296368420124,0.6526862978935242,0.00028872754774056375
f02,window11,11,1,stress,TMCT,2013-06-12 17:46:54,2013-06-12 17:47:54,1.0,1.0,0.0,1.0,0.0,0.0,0,0,0.021875,0,81,0,1.0,0.8,1.0,0.7458984375,0.841608962842256,0.9419088959693909,0.4792209267616272,0.49609171443460137,1,0.855204850567942,0.6316308117518881,0.8965474821010114,0.8377106640681197,0.8965474821010114,0,0.6118942499160767,0.6118942499160767,0.7112932638610692,0.27398521478683513,1,1.0,0,0.03924278914928436,0.05283549427986145,0.046583373099565506,0.05987916514277458,0.007340581621974707,0.011401074938476086,0.1438407003879547,3.6135315895080566e-06,0.0035264017060399055,0.007747650146484375,4.683589935302734,35.96134948730469,0.49426522850990295,0.001789105124771595,0.02150336094200611,4.316610813140869,24.802051544189453,0.5582717061042786,0.0021905521862208843,0.026032060384750366,4.05116081237793,22.065044403076172,913.0,0.1438407003879547,0.10923145711421967,39806.12890625,0.16787207126617432,6.103260517120361,0.7381904125213623,0.003737454768270254,0.009102072566747665,0.6193040013313293,0.00012998450256418437
f02,window12,12,1,stress,TMCT,2013-06-12 17:47:24,2013-06-12 17:48:24,0.8166666666666667,0.8166666666666667,0.18333333333333332,1.0,0.0,0.0,0,0,0.022916666666666665,0,82,0,1.0,0.8024691358024691,1.0,0.7330246913580247,0.8357788934889561,0.9404152631759644,0.8137536644935608,0.525794684731631,1,0.9064178222997384,0.7687745035044081,0.8945537040309178,0.8361078519785164,0.9064178222997384,1,1.2388774156570435,1.0,0.6717213223676745,-0.11521072009302924,1,1.0,0,0.038336656987667084,0.06363756954669952,0.045060157775878906,0.07062443345785141,0.006723502650856972,0.010907575488090515,0.141851544380188,2.6635825634002686e-06,0.0032405508682131767,0.006596654653549194,5.567807197570801,50.99760055541992,0.9311277270317078,0.0015879456186667085,0.021020231768488884,8.169909477233887,91.65941619873047,1.0168230533599854,0.001819734345190227,0.02572331577539444,7.961706161499023,89.7668685913086,953.0,0.141851544380188,0.13593636453151703,53255.921875,0.15646418929100037,6.133572578430176,0.29798707365989685,0.0038109917659312487,0.008349415846168995,0.6202611327171326,0.00011897520016646013
f02,window13,13,0,normal,First Rest,2013-06-12 17:48:24,2013-06-12 17:49:24,1.0,0.0,1.0,1.0,0.0,0.0,0,0,0.02109375,0,80,0,1.0,0.759493670886076,1.0,0.7456487341772152,0.8298172949209275,0.9300801455974579,1.2009347677230835,0.6169880145909328,1,0.8394598135617081,0.771638397368921,0.735203443295945,0.8725619603460073,0.8725619603460073,0,1.8831541538238525,1.0,0.6527426568307088,-0.13217753860458092,1,1.0,0,0.03738350793719292,0.051463302224874496,0.044801682233810425,0.06083459407091141,0.007418174296617508,0.014173931442201138,0.18718445301055908,6.28642737865448e-07,0.002875230275094509,0.006511585786938667,5.420510292053223,44.70769500732422,0.5684226751327515,0.002149689244106412,0.018144842237234116,4.38193941116333,29.562646865844727,0.671400249004364,0.0022823915351182222,0.020750563591718674,4.141453266143799,26.615026473999023,958.0,0.18718445301055908,0.14520026743412018,297759.65625,0.24518060684204102,5.955221652984619,0.6628044843673706,0.004854684695601463,0.010075245052576065,0.6783831119537354,0.00020090033649466932
f02,window14,14,0,normal,First Rest,2013-06-12 17:48:54,2013-06-12 17:49:54,1.0,0.0,1.0,1.0,0.0,0.0,0,0,0.02109375,0,78,0,1.0,0.7142857142857143,1.0,0.7749594155844156,0.8185393360997675,0.8979630172252655,0.8859728574752808,0.5591453882230328,1,0.8151129794376922,0.8348399057946816,0.788384262173236,0.7122351019338286,0.8348399057946816,0,1.472923994064331,1.0,0.6312760865442161,-0.1565886973830275,1,1.0,0,0.03712350130081177,0.0997871607542038,0.043149009346961975,0.1121232733130455,0.006025508511811495,0.01524355448782444,0.3106975555419922,4.937406629323959e-06,0.002257197629660368,0.005113913677632809,11.824743270874023,200.2742919921875,1.6828845739364624,0.001799671328626573,0.015557223930954933,10.985864639282227,157.37725830078125,1.9935821294784546,0.0018990793032571673,0.01835544966161251,11.207697868347168,164.64195251464844,908.0,0.3106975555419922,0.18548619747161865,62927.27734375,0.2439548224210739,5.79759407043457,0.18323436379432678,0.008149862289428711,0.008255836553871632,0.6843193769454956,0.0002323659573448822
f02,window15,15,0,normal,First Rest,2013-06-12 17:49:24,2013-06-12 17:50:24,1.0,0.0,1.0,1.0,0.0,0.0,0,0,0.021875,0,74,0,0.9863013698630136,0.6301369863013698,0.9863013698630136,0.8122859589041096,0.8948837783656662,0.7409846186637878,0.8494566082954407,0.5924960917144346,1,0.8029205685854469,0.8132921359738167,0.8121581691548821,0.8561742418242804,0.8561742418242804,0,1.3903942108154297,1.0,0.6177802020028506,-0.20473153087962281,1,1.0,0,0.03605451062321663,0.08313000947237015,0.04239780828356743,0.09393421560525894,0.006343294400721788,0.013690833933651447,0.2745434045791626,1.3499520719051361e-06,0.0026169046759605408,0.0057097990065813065,10.314168930053711,167.1374053955078,1.4870589971542358,0.0016636414220556617,0.018531711772084236,12.016380310058594,187.29629516601562,1.7616024017333984,0.001903071766719222,0.021507903933525085,12.071672439575195,191.21881103515625,945.0,0.2745434045791626,0.10843978822231293,203372.703125,0.21515411138534546,5.973902225494385,0.1580302119255066,0.005987648386508226,0.00826665572822094,0.6509162783622742,0.00018743892724160105
f02,window16,16,0,normal,First Rest,2013-06-12 17:49:54,2013-06-12 17:50:54,1.0,0.0,1.0,1.0,0.0,0.0,0,0,0.022395833333333334,0,75,0,1.0,0.8108108108108109,1.0,0.7934966216216216,0.8748810603459654,0.7762492895126343,0.5635672211647034,0.4205315268368942,1,0.7947400387640314,0.8193177192765808,0.7379893257338613,0.8573391855879652,0.8573391855879652,0,0.6924635767936707,0.6924635767936707,0.7175422847487468,0.16356225391422252,1,1.0,0,0.036234915256500244,0.06756188720464706,0.04272618144750595,0.07702995836734772,0.006491266191005707,0.012613675557076931,0.1998887062072754,3.875233232975006e-06,0.002692798152565956,0.005550914444029331,6.613709449768066,71.8792953491211,0.9148334264755249,0.0024820684920996428,0.01791325956583023,7.8748579025268555,79.06534576416016,1.1147221326828003,0.002706951228901744,0.021358046680688858,7.86006498336792,81.40711212158203,915.0,0.1998887062072754,0.10356384515762329,51581.078125,0.1841358244419098,5.942890167236328,0.33469200134277344,0.0052196006290614605,0.00859168078750372,0.6610644459724426,0.00015910480578895658
f02,window17,17,0,normal,First Rest,2013-06-12 17:50:24,2013-06-12 17:51:24,1.0,0.0,1.0,1.0,0.0,0.0,0,0,0.021614583333333333,0,74,0,1.0,0.8767123287671232,1.0,0.8176369863013698,0.8664499197406839,0.8361530900001526,0.5057904124259949,0.28921313183949976,1,0.7958634778912727,0.8345042018526876,0.7076871751412904,0.532017963618163,0.8345042018526876,0,0.7953863739967346,0.7953863739967346,0.7310812700293811,0.09327807706861146,1,1.0,0,0.03912970423698425,0.09251032769680023,0.04566227272152901,0.1026027500629425,0.00653256569057703,0.014628509990870953,0.22777938842773438,4.561617970466614e-06,0.0025254180654883385,0.0052999043837189674,7.30348014831543,79.81657409667969,1.304121494293213,0.0015231904108077288,0.014870421029627323,8.535791397094727,94.03601837158203,1.3788079023361206,0.0015345256542786956,0.01808098889887333,8.13279914855957,85.99070739746094,867.0,0.22777938842773438,0.15504547953605652,49933.90234375,0.22253091633319855,5.7579240798950195,0.28665459156036377,0.006937205791473389,0.009042096324265003,0.6912801861763,0.00021399330580607057
f02,window18,18,0,normal,First Rest,2013-06-12 17:50:54,2013-06-12 17:51:54,1.0,0.0,1.0,1.0,0.0,0.0,0,0,0.021614583333333333,0,74,0,1.0,0.8767123287671232,1.0,0.8058647260273972,0.7562010983461253,0.943745493888855,0.3891579806804657,0.2542991141219385,1,0.6776566234470164,0.7472356739114463,0.590954205146277,0.6432068579543859,0.7472356739114463,0,0.626453161239624,0.626453161239624,0.7148999448867244,0.2615471854492579,1,1.0,0,0.03727151080965996,0.060106776654720306,0.04435921832919121,0.06999938935041428,0.007087709382176399,0.01565926894545555,0.23855306208133698,7.7858567237854e-07,0.0025481414049863815,0.006028424948453903,7.616536617279053,83.51486206054688,0.6140985488891602,0.002637917874380946,0.01694939285516739,4.5216064453125,26.1729679107666,0.6252042055130005,0.0027943456079810858,0.02088627591729164,4.268764495849609,22.184173583984375,914.0,0.23855306208133698,0.18580973148345947,306392.8125,0.27003979682922363,5.8393988609313965,0.5457591414451599,0.006434629671275616,0.009721668437123299,0.6850613951683044,0.0002452127228025347
f02,window19,19,0,normal,First Rest,2013-06-12 17:51:24,2013-06-12 17:52:24,1.0,0.0,1.0,1.0,0.0,0.0,0,0,0.021614583333333333,0,74,0,1.0,0.9041095890410958,1.0,0.8090753424657534,0.8431462356837767,0.8093988299369812,0.14881637692451477,0.20948410630536737,1,0.5461534075236827,0.5375189665084708,0.3338752678149538,-0.10754302788447066,0.5461534075236827,0,0.25240275263786316,0.25240275263786316,0.789347431057785,0.6319663904796551,1,1.0,0,0.03584381192922592,0.07006988674402237,0.04241039231419563,0.08049596846103668,0.006566578987985849,0.01432802528142929,0.2243158221244812,2.292916178703308e-06,0.002837724518030882,0.005633622407913208,7.835430145263672,86.7618637084961,0.8785751461982727,0.002956582698971033,0.018558192998170853,7.376453399658203,61.97901153564453,0.9600474238395691,0.0032814922742545605,0.022642500698566437,7.292953968048096,60.333465576171875,926.0,0.2243158221244812,0.1545264720916748,97829.9296875,0.23002976179122925,5.908510208129883,0.20580442249774933,0.006221337243914604,0.008678651414811611,0.6601062417030334,0.00020529230823740363
f02,window20,20,0,normal,First Rest,2013-06-12 17:51:54,2013-06-12 17:52:54,1.0,0.0,1.0,1.0,0.0,0.0,0,0,0.021614583333333333,0,73,0,1.0,0.9444444444444444,1.0,0.8209635416666666,0.9330773349799595,0.6709148287773132,0.2413046807050705,0.2944241792600313,1,0.7387912274406189,0.7995731859422275,0.7702269674363181,0.06703757964169134,0.7995731859422275,0,0.42284834384918213,0.42284834384918213,0.8154161438868472,0.4614830304234694,1,1.0,0,0.034949950873851776,0.0689556896686554,0.04172671213746071,0.08210532367229462,0.006776762194931507,0.017085282132029533,0.2692963480949402,2.0079314708709717e-06,0.0026493221521377563,0.005601512733846903,9.033421516418457,107.9183578491211,0.8097797632217407,0.002082003280520439,0.017752833664417267,7.700139999389648,68.97454833984375,0.933205783367157,0.0022640188690274954,0.0218970887362957,7.638977527618408,67.44058990478516,902.0,0.2692963480949402,0.2291191816329956,134116.296875,0.30472391843795776,5.770885467529297,0.2814564108848572,0.008155468851327896,0.009227536618709564,0.6800671219825745,0.0002919068792834878
f02,window21,21,0,normal,First Rest,2013-06-12 17:52:24,2013-06-12 17:53:24,1.0,0.0,1.0,1.0,0.0,0.0,0,0,0.022135416666666668,0,77,0,1.0,0.8421052631578947,1.0,0.7767269736842105,0.8175272076207227,0.8737865686416626,0.5214727520942688,0.42886920270974466,1,0.8465916276171245,0.8557559745904767,0.8287351423660435,0.2533292469988401,0.8557559745904767,0,0.7396315932273865,0.7396315932273865,0.708137108226636,0.1358284297855783,1,1.0,0,0.032830581068992615,0.05124551057815552,0.03920891135931015,0.05853896215558052,0.006378331687301397,0.010871379636228085,0.13644671440124512,4.370696842670441e-06,0.0030538737773895264,0.006209344603121281,5.348284721374512,43.2379035949707,0.5590554475784302,0.0016366199124604464,0.01818060502409935,5.664858341217041,41.116729736328125,0.6099730730056763,0.001779549173079431,0.02181515283882618,5.345651626586914,36.66929626464844,913.0,0.13644671440124512,0.11554840207099915,31218.525390625,0.14504830539226532,6.048224925994873,0.48644569516181946,0.004277174361050129,0.008063379675149918,0.6313992738723755,0.00011818688653875142
f02,window22,22,0,normal,First Rest,2013-06-12 17:52:54,2013-06-12 17:53:54,1.0,0.0,1.0,1.0,0.0,0.0,0,0,0.021614583333333333,0,78,0,1.0,0.8571428571428571,1.0,0.7666396103896104,0.7717456353180188,0.903595507144928,0.5133289694786072,0.504950495049505,1,0.8062718766647556,0.8333458723228014,0.8409601874989643,0.2664147747845952,0.8409601874989643,0,0.7543292045593262,0.7543292045593262,0.6989479129966157,0.12164893819926759,1,1.0,0,0.033617086708545685,0.05137934908270836,0.039814166724681854,0.05773603171110153,0.006197077687829733,0.010146912187337875,0.10601233690977097,1.4565885066986084e-06,0.0027499841526150703,0.006209796294569969,4.253888130187988,24.922029495239258,0.6792645454406738,0.003133883699774742,0.01991082727909088,6.5390706062316895,58.118377685546875,0.7324848175048828,0.003273183945566416,0.024318352341651917,6.097130298614502,51.25891876220703,930.0,0.10601233690977097,0.08392496407032013,72781.25,0.13146816194057465,6.070852756500244,0.3811713755130768,0.00395804550498724,0.0078818304464221,0.6352474093437195,0.00010295983520336449
f02,window23,23,0,normal,First Rest,2013-06-12 17:53:24,2013-06-12 17:54:24,1.0,0.0,1.0,1.0,0.0,0.0,0,0,0.02265625,0,78,0,0.987012987012987,0.8181818181818182,0.987012987012987,0.765625,0.7771235776942437,0.8609733581542969,0.911797821521759,0.5726941115164148,1,0.7204881740429696,0.8304277189746233,0.7526243365257062,0.7443583941538786,0.8304277189746233,0,1.6681617498397827,1.0,0.6578123979835978,-0.14761862318072194,1,1.0,0,0.037818972021341324,0.051512718200683594,0.04455683380365372,0.05924553424119949,0.006737860385328531,0.011960822157561779,0.09915037453174591,2.7548521757125854e-06,0.002414256101474166,0.006002794951200485,3.753404378890991,17.501911163330078,0.3918040096759796,0.0023777224123477936,0.016080448403954506,2.8822238445281982,10.030810356140137,0.405911386013031,0.002695495029911399,0.01915670558810234,2.6898837089538574,8.12415599822998,920.0,0.09915037453174591,0.09011919796466827,35991.1796875,0.1733832210302353,5.932380199432373,0.921502947807312,0.004512190818786621,0.009180924855172634,0.6805533170700073,0.00014306127559393644
f02,window24,24,0,normal,First Rest,2013-06-12 17:53:54,2013-06-12 17:54:54,1.0,0.0,1.0,1.0,0.0,0.0,0,0,0.022916666666666665,0,80,0,1.0,0.8354430379746836,1.0,0.7460443037974683,0.7968271136289975,0.9605602025985718,1.0029927492141724,0.5695674830640959,1,0.7966472949269255,0.8578941397303974,0.7574104815754815,0.8134311008266806,0.8578941397303974,0,1.4474784135818481,1.0,0.6732253492785726,-0.1100202595507026,1,1.0,0,0.035102251917123795,0.04652068018913269,0.04173871502280235,0.05487034097313881,0.006636463105678558,0.012086192145943642,0.10777515172958374,9.34116542339325e-07,0.002240175846964121,0.005499584600329399,3.90910267829895,19.558908462524414,0.33815935254096985,0.0022477013990283012,0.015043037943542004,2.4986724853515625,7.282723903656006,0.3688308894634247,0.0022583245299756527,0.01824750192463398,2.426771402359009,6.474920749664307,905.0,0.10777515172958374,0.09562727808952332,115376.5546875,0.1720574051141739,5.8912353515625,0.9913139939308167,0.004769829101860523,0.009132001549005508,0.6872569918632507,0.0001460760395275429
f02,window25,25,0,normal,First Rest,2013-06-12 17:54:24,2013-06-12 17:55:24,1.0,0.0,1.0,1.0,0.0,0.0,0,0,0.020833333333333332,0,76,0,1.0,0.9333333333333333,1.0,0.7879166666666667,0.8378645902472399,1.0,0.3116287887096405,0.4273058884835852,1,0.7218829369398077,0.4265439959760516,0.6610457793809951,-0.039137466336219416,0.7218829369398077,0,0.41204410791397095,0.41204410791397095,0.7834882996161081,0.5274220396478391,1,1.0,0,0.03208639845252037,0.07884294539690018,0.037376515567302704,0.08741326630115509,0.0052901157177984715,0.012539796531200409,0.16911303997039795,2.2761523723602295e-06,0.0021117180585861206,0.0040688165463507175,7.725318431854248,77.13656616210938,0.8559418320655823,0.0010227583115920424,0.014351668767631054,7.154824256896973,57.751922607421875,0.9308764934539795,0.0012869046768173575,0.01728297770023346,6.9402546882629395,54.19779968261719,914.0,0.16911303997039795,0.15657907724380493,74297.765625,0.16930188238620758,5.81255578994751,0.23743990063667297,0.0072416760958731174,0.007177810650318861,0.6776749491691589,0.00015724649711046368
f02,window26,26,0,normal,First Rest,2013-06-12 17:54:54,2013-06-12 17:55:54,1.0,0.0,1.0,1.0,0.0,0.0,0,0,0.021614583333333333,0,77,0,1.0,0.9078947368421053,1.0,0.7810444078947368,0.8067187917244153,0.9689765870571136,0.45405277609825134,0.5080771235018239,1,0.8241826223323492,0.7807780061076596,0.7429611334692349,0.8126399792874387,0.8241826223323492,0,0.7200838327407837,0.7200838327407837,0.7331651489800883,0.19620843300723023,1,1.0,0,0.03766234591603279,0.06838592886924744,0.04466918855905533,0.08105070143938065,0.0070068431086838245,0.016828961670398712,0.25050634145736694,9.685754776000977e-07,0.0025147050619125366,0.005788648501038551,7.966514587402344,88.52975463867188,0.669784665107727,0.001103956252336502,0.016954965889453888,5.292469501495361,35.36741638183594,0.920291006565094,0.0013856944860890508,0.020159337669610977,5.701988697052002,43.36851119995117,884.0,0.25050634145736694,0.2194385528564453,258633.78125,0.29376184940338135,5.728896617889404,0.4823114573955536,0.007656778674572706,0.009801996871829033,0.698667585849762,0.0002832139434758574
f02,window27,27,0,normal,First Rest,2013-06-12 17:55:24,2013-06-12 17:56:24,1.0,0.0,1.0,1.0,0.0,0.0,0,0,0.022135416666666668,0,79,0,1.0,0.782051282051282,1.0,0.7580128205128205,0.7361731318106224,0.946873128414154,0.849678099155426,0.6435643564356436,1,0.8651290520695873,0.8933718171219072,0.8703901945446553,0.9422718440804739,0.9422718440804739,1,1.1947169303894043,1.0,0.6336724523636995,-0.14462305032842127,1,1.0,0,0.038749225437641144,0.07469551265239716,0.045202210545539856,0.08287081867456436,0.006452987901866436,0.012613188475370407,0.13420531153678894,1.9371509552001953e-07,0.0021467329934239388,0.005458475090563297,4.980319499969482,34.72003173828125,0.8862259387969971,0.0015721358358860016,0.01608545146882534,6.153475761413574,51.53068923950195,1.0140193700790405,0.0016245332080870867,0.019063930958509445,5.821438789367676,47.32160949707031,942.0,0.13420531153678894,0.12779343128204346,692797.375,0.1890910416841507,5.881778717041016,0.4519490897655487,0.005117376800626516,0.00902495626360178,0.6985427141189575,0.00015909252397250384
f02,window28,28,0,normal,First Rest,2013-06-12 17:55:54,2013-06-12 17:56:54,1.0,0.0,1.0,1.0,0.0,0.0,0,0,0.022135416666666668,0,78,0,1.0,0.8961038961038961,1.0,0.7745535714285714,0.8615237116543796,1.0,0.529220461845398,0.4137571651902032,1,0.8221185972148327,0.8898043086643338,0.8140831471420326,0.9267962327413583,0.9267962327413583,1,0.6085346937179565,0.6085346937179565,0.7560452025660767,0.32567740302680726,1,1.0,0,0.03975832089781761,0.07688429951667786,0.046697814017534256,0.08597289025783539,0.00693949218839407,0.014708873815834522,0.19706454873085022,7.748603820800781e-07,0.002432752400636673,0.005239491350948811,6.375112056732178,58.80231857299805,0.8720450401306152,0.001850684406235814,0.01457679457962513,5.742281436920166,45.31708526611328,0.997671365737915,0.0023467419669032097,0.017565537244081497,5.355846405029297,40.1163444519043,866.0,0.19706454873085022,0.16363227367401123,254322.65625,0.2290635108947754,5.776628494262695,0.48562759160995483,0.006342562381178141,0.009641100652515888,0.693852424621582,0.00021635096345562488
f02,window29,29,0,normal,First Rest,2013-06-12 17:56:24,2013-06-12 17:57:24,1.0,0.0,1.0,1.0,0.0,0.0,0,0,0.021614583333333333,0,77,0,1.0,0.9342105263157895,1.0,0.7750822368421053,0.9131410616920937,1.0,0.33576908707618713,0.3449713392391871,1,0.6685921031000969,0.8023961524062827,0.6968244220345448,0.8196065400679534,0.8196065400679534,0,0.4626902639865875,0.4626902639865875,0.8013575026352853,0.49585815933117283,1,1.0,0,0.034407973289489746,0.06474702060222626,0.04073615372180939,0.07128632813692093,0.006328178104013205,0.012339871376752853,0.15650132298469543,3.7355348467826843e-06,0.0027217199094593525,0.005313942674547434,6.135793685913086,53.18862533569336,1.0132339000701904,0.0027366038411855698,0.017379119992256165,9.884583473205566,129.62701416015625,1.0337562561035156,0.0030103966128081083,0.021128294989466667,8.761157035827637,104.20938110351562,851.0,0.15650132298469543,0.14152270555496216,41895.29296875,0.163662850856781,5.881807804107666,0.2231450080871582,0.0056433058343827724,0.008278317749500275,0.6533152461051941,0.00015227243420667946
