subject,window,window_index,status,status_name,label_major,t_start_sec,t_end_sec,major_ratio,bvp_missing_ratio,acc_missing_ratio,missing_flag,flatline_flag,clipping_ratio,clipping_flag,n_peaks,peak_sparse_flag,ibi_pass_ratio,valid_beat_ratio,ibi_plausibility,ibi_mean_sec,median_template_corr,notch_foot_peak_detectability,acc_diff_mean,acc_diff_exceed_ratio,acc_diff_flag,psd_corr_x,psd_corr_y,psd_corr_z,psd_corr_mag,psd_corr_max,psd_corr_flag,motion_score_raw,motion_score,SQI_stress_basic,SQI_stress_morph,hard_reject,motion_threshold_subject_p80,qc_relaxed_pass,TPV22,TPV9,TPV4,TPV2,TPV0,TPV28,TPV8,TPV19,TPV14,TPV26,TPV11
S10,window1,1,0,baseline,1,120.0,180.0,1.0,0.0,0.0,0,0,0.021614583333333333,0,91,0,1.0,0.7666666666666667,1.0,0.6638888888888889,0.9635779305576437,1.0,0.47646141052246094,0.5033871808233454,1,0.7440919792622503,0.8276812172509204,0.655674290554356,0.7017147796105332,0.8276812172509204,0,0.5780583620071411,0.5780583620071411,0.7379342096332457,0.34283612063226987,1,1.0,0,966.0,0.004934976808726788,0.006088683381676674,0.041483014822006226,0.0353943295776844,0.008681662380695343,0.0018992293626070023,0.014323255978524685,0.01191931962966919,5.8615617752075195,26.198123931884766
S10,window2,2,0,baseline,1,180.0,240.0,1.0,0.0,0.0,0,0,0.02109375,0,95,0,1.0,0.8723404255319149,1.0,0.6316489361702128,0.9886541711816459,1.0,0.4095671474933624,0.27670661803022406,1,0.771530647332469,0.7957953505463166,0.6559857837557562,0.6145144968373115,0.7957953505463166,0,0.6646443605422974,0.6646443605422974,0.77906798551303,0.29422130991268847,1,1.0,0,906.0,0.0031651135068386793,0.005492926109582186,0.041281234472990036,0.03578830882906914,0.00845411792397499,0.001249758992344141,0.010401163250207901,0.008754448033869267,5.543713092803955,31.082847595214844
S10,window3,3,0,baseline,1,240.0,300.0,1.0,0.0,0.0,0,0,0.022135416666666668,0,98,0,1.0,0.8969072164948454,1.0,0.6121134020618557,0.9848194924972908,0.9989602565765381,0.1936546117067337,0.273058884835852,1,0.6824516176650709,0.46531476818075507,0.618098293549804,0.03359684106281325,0.6824516176650709,0,0.21213339269161224,0.21213339269161224,0.8329953950779642,0.7528837095252985,1,1.0,0,937.0,0.005692636594176292,0.006687209475785494,0.04258033633232117,0.03589312732219696,0.009086370468139648,0.0025711767375469208,0.023419246077537537,0.01917652226984501,5.85935640335083,65.9618911743164
S10,window4,4,0,baseline,1,300.0,360.0,1.0,0.0,0.0,0,0,0.020572916666666666,0,97,0,1.0,0.90625,1.0,0.6188151041666666,0.9651828104953686,1.0,0.46121054887771606,0.5184992183428869,1,0.562681124193753,0.7071582952325448,0.5177532580735291,0.4648058025633163,0.7071582952325448,0,0.773216724395752,0.773216724395752,0.7747331707090354,0.18995397822809013,1,1.0,0,959.0,0.00472658546641469,0.005648395512253046,0.0423758439719677,0.03672744706273079,0.0076962970197200775,0.0021863612346351147,0.01755165122449398,0.014470333233475685,5.852874279022217,64.34534454345703
S10,window5,5,0,baseline,1,360.0,420.0,1.0,0.0,0.0,0,0,0.021614583333333333,0,96,0,1.0,0.7789473684210526,1.0,0.6223684210526316,0.9325638457652036,0.9581897854804993,0.55794358253479,0.4919228764981761,1,0.7820360075711055,0.7024149392159098,0.5938166505096393,0.6720271131485873,0.7820360075711055,0,0.6778569221496582,0.6778569221496582,0.7235624088830164,0.2285156961880832,1,1.0,0,944.0,0.0032368963584303856,0.005209426861256361,0.038413356989622116,0.03320392966270447,0.007909943349659443,0.0013262471184134483,0.009509420022368431,0.007900269702076912,5.6092376708984375,69.71685028076172
S10,window6,6,0,baseline,1,420.0,480.0,1.0,0.0,0.0,0,0,0.02265625,0,103,0,1.0,0.8725490196078431,1.0,0.5776654411764706,0.9711584430206817,0.9917521476745605,0.6060914993286133,0.5372589890568004,1,0.6825923855519483,0.6540862484105958,0.5971133992253062,0.6521459804529243,0.6825923855519483,0,0.7205711007118225,0.7205711007118225,0.7683100306781596,0.23192125284434106,1,1.0,0,912.0,0.0036741001531481743,0.006470044143497944,0.039569005370140076,0.033098962157964706,0.00982994120568037,0.0016117615159600973,0.011869283393025398,0.01008760929107666,5.528491973876953,63.41962432861328
S10,window7,7,0,baseline,1,480.0,540.0,1.0,0.0,0.0,0,0,0.021614583333333333,0,86,0,0.9764705882352941,0.7529411764705882,0.9764705882352941,0.6996323529411764,0.7756971086805947,0.9753425717353821,0.6662099361419678,0.539343408025013,1,0.8743428465316754,0.8211332218391239,0.8451495779804903,0.8529058101195919,0.8743428465316754,0,1.0090755224227905,1.0,0.6291797208394726,-0.1410636093077705,1,1.0,0,923.0,0.003486462403088808,0.005891655571758747,0.039347633719444275,0.0334559790790081,0.008983918465673923,0.0014670444652438164,0.009570145979523659,0.007753108628094196,5.591190814971924,27.36176300048828
S10,window8,8,0,baseline,1,540.0,600.0,1.0,0.0,0.0,0,0,0.021614583333333333,0,100,0,1.0,0.9494949494949495,1.0,0.601010101010101,0.9774795144653745,1.0,0.8464753031730652,0.5888483585200626,1,0.7018557188783832,0.8451775909627746,0.7101330233550514,0.43261886758551965,0.8451775909627746,0,1.3975465297698975,1.0,0.7730418341375921,-0.02078163653517162,1,1.0,0,912.0,0.004607201088219881,0.0073371934704482555,0.046195343136787415,0.03885814920067787,0.010878224857151508,0.0020905365236103535,0.016417507082223892,0.013740302994847298,5.567196369171143,72.10059356689453
S10,window9,9,0,baseline,1,600.0,660.0,1.0,0.0,0.0,0,0,0.021614583333333333,0,99,0,1.0,0.8163265306122449,1.0,0.6050701530612245,0.9376922280487883,0.9743512272834778,1.3079230785369873,0.6873371547681084,1,0.7327496897886144,0.8492226187767775,0.7766334024183418,0.6352258191681501,0.8492226187767775,0,1.9325796365737915,1.0,0.7078382806595344,-0.07709117698326007,1,1.0,0,986.0,0.00511928042396903,0.005832575261592865,0.0403405986726284,0.03450802341103554,0.008056261576712132,0.0020830980502068996,0.01716695912182331,0.014316128566861153,5.930973052978516,77.78238677978516
S10,window10,10,0,baseline,1,660.0,720.0,1.0,0.0,0.0,0,0,0.021614583333333333,0,98,0,1.0,0.7525773195876289,1.0,0.6101804123711341,0.8926521234023201,0.973407506942749,1.3151967525482178,0.7321521625846795,1,0.7235647286873154,0.6191310465095939,0.7106117636785043,0.5327675782773367,0.7235647286873154,0,1.991370677947998,1.0,0.6688265648557475,-0.10771189653744406,1,1.0,0,942.0,0.007936885580420494,0.007925543002784252,0.05093822255730629,0.04301268234848976,0.010451791808009148,0.0032179546542465687,0.024327516555786133,0.020280376076698303,5.963369846343994,167.0305633544922
S10,window11,11,0,baseline,1,720.0,780.0,1.0,0.0,0.0,0,0,0.022916666666666665,0,86,0,0.9882352941176471,0.7176470588235294,0.9882352941176471,0.6976102941176471,0.8649134586180374,0.9994308352470398,1.3223292827606201,0.6925482021886399,1,0.8279803947541812,0.80917379539302,0.7958675676428688,0.8819993082930243,0.8819993082930243,0,1.752213954925537,1.0,0.6441799199383524,-0.12097275006314245,1,1.0,0,907.0,0.0076699941419065,0.0076262466609478,0.047750480473041534,0.040124233812093735,0.00974264182150364,0.0033915862441062927,0.02828720398247242,0.023709168657660484,6.043978691101074,42.4907341003418
S10,window12,12,0,baseline,1,780.0,840.0,1.0,0.0,0.0,0,0,0.022135416666666668,0,89,0,0.9886363636363636,0.8181818181818182,0.9886363636363636,0.6750710227272727,0.8992756516380699,1.0,0.7587186098098755,0.6565919749869724,1,0.7361348290849486,0.6394049901325254,0.7048843084858015,0.6433533724206011,0.7361348290849486,0,1.1041884422302246,1.0,0.694782695491421,-0.08199926890866438,1,1.0,0,970.0,0.006014326587319374,0.007878029718995094,0.04872193932533264,0.0408439077436924,0.011463846080005169,0.0024291793815791607,0.019292909651994705,0.01564556360244751,5.719175338745117,53.11857986450195
S10,window13,13,0,baseline,1,840.0,900.0,1.0,0.0,0.0,0,0,0.02265625,0,88,0,0.9770114942528736,0.735632183908046,0.9770114942528736,0.6799568965517241,0.7669238210668112,0.9536418318748474,1.035012125968933,0.6086503387180824,1,0.7441995123302473,0.8843359917467214,0.6599450230627938,0.7801861035847125,0.8843359917467214,0,1.2675840854644775,1.0,0.6197323187338365,-0.15376663274159685,1,1.0,0,934.0,0.008087245747447014,0.00819920189678669,0.047065578401088715,0.038866374641656876,0.011168990284204483,0.0028785900212824345,0.02650619111955166,0.021888796240091324,5.962247848510742,14.628581047058105
S10,window14,14,0,baseline,1,900.0,960.0,1.0,0.0,0.0,0,0,0.022135416666666668,0,95,0,1.0,0.851063829787234,1.0,0.6298204787234043,0.9291311238913025,1.0,0.5301247239112854,0.36216779572694113,1,0.6666665423028235,0.7643503921151565,0.7496112167398807,0.6991201451237608,0.7643503921151565,0,0.8441691398620605,0.8441691398620605,0.7347479550960783,0.09343279004693528,1,1.0,0,959.0,0.004566189367324114,0.006931144744157791,0.0447341725230217,0.03780302405357361,0.010247359983623028,0.002150038257241249,0.016118504106998444,0.013548605144023895,5.6178765296936035,121.20600128173828
S10,window15,15,0,baseline,1,960.0,1020.0,1.0,0.0,0.0,0,0,0.021614583333333333,0,90,0,1.0,0.9325842696629213,1.0,0.6702949438202247,0.9851223062446506,1.0,0.16248218715190887,0.25273579989577905,1,0.6434672923309228,0.6500141576270981,0.43286378578507506,0.3957847080113357,0.6500141576270981,0,0.18907807767391205,0.18907807767391205,0.8496625919711724,0.786977779786127,1,1.0,0,901.0,0.005276791751384735,0.006151695270091295,0.04108227416872978,0.034930575639009476,0.007997912354767323,0.0027255788445472717,0.02241113968193531,0.018606510013341904,5.972594738006592,30.190975189208984
S10,window16,16,0,baseline,1,1020.0,1080.0,1.0,0.0,0.0,0,0,0.020572916666666666,0,95,0,1.0,0.9893617021276596,1.0,0.6308178191489362,0.9786382738494634,1.0,0.37856072187423706,0.39030745179781134,1,0.5690833912900614,0.320878920350682,0.5651034890735313,0.6413777934516627,0.6413777934516627,0,0.5725576877593994,0.5725576877593994,0.8320803942299629,0.4189103913412644,1,1.0,0,884.0,0.004213831387460232,0.007700770627707243,0.054376453161239624,0.046675682067871094,0.011907926760613918,0.0019766800105571747,0.016300193965435028,0.013283048756420612,5.307644367218018,112.95993041992188
S10,window17,17,0,baseline,1,1080.0,1140.0,1.0,0.0,0.0,0,0,0.02109375,0,102,0,1.0,0.9504950495049505,1.0,0.5895730198019802,0.9694647103641848,0.9960647821426392,0.5252619981765747,0.3590411672746222,1,0.8647249355097837,0.8072604904244205,0.8045591293967412,0.6181416828680752,0.8647249355097837,0,0.9078391790390015,0.9078391790390015,0.7802535150073354,0.06869170893918963,1,1.0,0,927.0,0.0024511897936463356,0.005820359103381634,0.038527533411979675,0.03270717337727547,0.009518254548311234,0.0011146031320095062,0.009047660045325756,0.007720653899013996,5.146522521972656,72.11927795410156
S10,window18,18,0,baseline,1,1140.0,1200.0,1.0,0.0,0.0,0,0,0.022135416666666668,0,93,0,1.0,0.8260869565217391,1.0,0.6462296195652174,0.9441794471775568,1.0,1.0750102996826172,0.6508598228243877,1,0.775454057985679,0.733203154471963,0.7725209289297373,0.4906636645793226,0.775454057985679,0,1.8808491230010986,1.0,0.7136886167619626,-0.06612905124908908,1,1.0,0,921.0,0.005708004347980022,0.0065634106285870075,0.042138468474149704,0.035575058311223984,0.008819599635899067,0.0025997385382652283,0.02052576281130314,0.017586611211299896,5.9513020515441895,33.26953125
S10,window19,19,0,baseline,1,1200.0,1260.0,1.0,0.0,0.0,0,0,0.02109375,0,101,0,1.0,0.87,1.0,0.5953125,0.975141349885762,1.0,0.7862087488174438,0.6102136529442418,1,0.6307927272704229,0.7261040102684904,0.7298960960836502,0.7538633311915511,0.7538633311915511,0,1.0932884216308594,1.0,0.7405424049657287,-0.045214662528559435,1,1.0,0,866.0,0.0063551380299031734,0.007586566731333733,0.04898831993341446,0.041401755064725876,0.010558095760643482,0.00269651529379189,0.021472923457622528,0.017969604581594467,5.747260570526123,89.08979797363281
S10,window20,20,1,stress,2,3240.0,3300.0,1.0,0.0,0.0,0,0,0.021354166666666667,0,104,0,1.0,0.8446601941747572,1.0,0.5790351941747572,0.8589364706294955,0.9885376691818237,1.607998251914978,0.6524231370505471,1,0.5221843949449704,0.7652670710569032,0.8216508551576758,0.15027756755914615,0.8216508551576758,0,2.9295918941497803,1.0,0.6955450188587516,-0.08473340679474295,1,1.0,0,952.0,0.006282550282776356,0.007267324719578028,0.04685039818286896,0.03958307206630707,0.010001624934375286,0.0025530534330755472,0.02015153132379055,0.016182271763682365,5.934147357940674,36.78281784057617
S10,window21,21,1,stress,2,3300.0,3360.0,1.0,0.0,0.0,0,0,0.021354166666666667,0,107,0,1.0,0.7264150943396226,1.0,0.5623525943396226,0.7251593003002742,0.9666097164154053,3.046257257461548,0.7326732673267327,1,0.7351783920661921,0.7937962883383762,0.8367801840669269,0.4282756206869339,0.8367801840669269,0,5.121241092681885,1.0,0.6081138278259314,-0.1591332175191933,1,1.0,0,965.0,0.008784100413322449,0.008200379088521004,0.050587911158800125,0.04238753393292427,0.010485956445336342,0.003409363329410553,0.02680867351591587,0.021873893216252327,6.1126179695129395,21.772201538085938
S10,window22,22,1,stress,2,3360.0,3420.0,1.0,0.0,0.0,0,0,0.02109375,0,99,0,1.0,0.8061224489795918,1.0,0.5980548469387755,0.820048012172848,0.9035977721214294,1.0651530027389526,0.5320479416362689,1,-0.48279197210382363,0.7067692218980393,0.8673126383033517,-0.29390663418145974,0.8673126383033517,0,2.218050479888916,1.0,0.6684633832436911,-0.12725181923255313,1,1.0,0,918.0,0.005366368219256401,0.007131082005798817,0.04494050517678261,0.03780942037701607,0.010219821706414223,0.002200538059696555,0.01670418120920658,0.013801729306578636,5.734622955322266,93.03900146484375
S10,window23,23,1,stress,2,3420.0,3480.0,1.0,0.0,0.0,0,0,0.021614583333333333,0,103,0,1.0,0.6862745098039216,1.0,0.5787377450980392,0.7725318036153257,0.8964257836341858,1.0514315366744995,0.5523710265763419,1,-0.028463866645426435,0.6581574558916571,0.7290924168073246,0.04612515162181776,0.7290924168073246,0,2.347795009613037,1.0,0.6062693450061664,-0.17687825024644566,1,1.0,0,943.0,0.004230354446917772,0.0064779347740113735,0.04457702487707138,0.03809908777475357,0.009437238797545433,0.002151365391910076,0.017048612236976624,0.0139252208173275,5.542977333068848,171.6593017578125
S10,window24,24,1,stress,2,3480.0,3540.0,1.0,0.0,0.0,0,0,0.021614583333333333,0,98,0,1.0,0.8350515463917526,1.0,0.6105025773195877,0.8495608423707416,0.9302195906639099,0.8824843168258667,0.42678478374153206,1,0.7730697829797006,0.6695474134493692,0.8086313713472211,0.8568148114685299,0.8568148114685299,0,2.0616652965545654,1.0,0.6888888712679236,-0.10453942782381143,1,1.0,0,979.0,0.0044448841363191605,0.0055755130015313625,0.0427262969315052,0.037150781601667404,0.007682690862566233,0.002174653112888336,0.015924688428640366,0.013289863243699074,5.85188627243042,125.80126190185547
S10,window25,25,1,stress,2,3540.0,3600.0,1.0,0.0,0.0,0,0,0.021354166666666667,0,98,0,1.0,0.8762886597938144,1.0,0.6140463917525774,0.838512179164128,0.8587006032466888,0.622002899646759,0.5455966649296509,1,-0.06366729648609505,0.7239062179283232,0.7850672321772527,-0.6327916460538686,0.7850672321772527,0,0.9256017804145813,0.9256017804145813,0.7095089396253061,-0.038411986873732706,1,1.0,0,970.0,0.0030493633821606636,0.0062606483697891235,0.043001819401979446,0.03674117103219032,0.009922181256115437,0.0013684474397450686,0.010415861383080482,0.008566795848309994,5.36549186706543,63.1867561340332
S10,window26,26,1,stress,2,3600.0,3660.0,1.0,0.0,0.0,0,0,0.020833333333333332,0,103,0,1.0,0.7647058823529411,1.0,0.5845588235294118,0.7376587133636574,0.9080756902694702,0.5241997241973877,0.4179260031266285,1,0.14666260370921877,0.7492487711814455,0.6314077921851278,0.03528287851552496,0.7492487711814455,0,1.316064715385437,1.0,0.6271799669502737,-0.15915463438583577,1,1.0,0,965.0,0.004814032465219498,0.0058392793871462345,0.04160440340638161,0.03576512262225151,0.007839850150048733,0.0024677268229424953,0.01903459057211876,0.01547698862850666,5.841882228851318,153.5889434814453
S10,window27,27,1,stress,2,3660.0,3720.0,1.0,0.0,0.0,0,0,0.021875,0,106,0,1.0,0.9047619047619048,1.0,0.5632440476190477,0.9063317214410349,0.9676539301872253,0.10220430791378021,0.24022928608650337,1,-0.18565107112934545,0.14098064717907138,0.30939693887566977,0.008999664778978943,0.30939693887566977,0,0.10692886263132095,0.10692886263132095,0.8231113920739404,0.8329961217043156,1,1.0,0,967.0,0.007697300054132938,0.007903030142188072,0.047820959240198135,0.039917927235364914,0.009526207111775875,0.0041529592126607895,0.03274187818169594,0.027817778289318085,6.207658767700195,22.984066009521484
S10,window28,28,1,stress,2,3720.0,3780.0,1.0,0.0,0.0,0,0,0.021354166666666667,0,103,0,1.0,0.803921568627451,1.0,0.5758272058823529,0.8151480376364342,0.9154745936393738,0.4472268223762512,0.37936425221469516,1,0.08313642482781165,0.453477780111974,0.7241889928407083,-0.5477944828924836,0.7241889928407083,0,0.6906446218490601,0.6906446218490601,0.6970485765570046,0.1831875065581272,1,1.0,0,926.0,0.006280176341533661,0.00746112409979105,0.050382450222969055,0.04292132332921028,0.010222386568784714,0.002654967363923788,0.020502718165516853,0.016768116503953934,5.862689018249512,65.94587707519531
S10,window29,29,1,stress,2,3780.0,3840.0,1.0,0.0,0.0,0,0,0.022395833333333334,0,96,0,1.0,0.8315789473684211,1.0,0.6259868421052631,0.9160368792606303,0.9465643763542175,0.39167648553848267,0.5997915581031787,1,-0.40597014514942775,0.022680320334308418,0.6147547151413207,-0.3127017104784677,0.6147547151413207,0,0.5869584083557129,0.5869584083557129,0.7487468018899861,0.3281655897585254,1,1.0,0,947.0,0.006120453588664532,0.007219131104648113,0.046891987323760986,0.0396728552877903,0.009493688121438026,0.003009781241416931,0.025055188685655594,0.02091689594089985,5.973315715789795,80.19669342041016
S10,window30,30,1,stress,2,3840.0,3900.0,1.0,0.0,0.0,0,0,0.022135416666666668,0,97,0,1.0,0.7604166666666666,1.0,0.6144205729166666,0.8341387746826572,0.9305219650268555,0.6511131525039673,0.5747785304846275,1,0.30402570964547215,0.6248682680879113,0.3216309746348232,-0.23413804243144012,0.6248682680879113,0,1.2527073621749878,1.0,0.6544082990714638,-0.1307098150726218,1,1.0,0,961.0,0.006703034974634647,0.007712532766163349,0.04814256727695465,0.04043003171682358,0.010594815015792847,0.003061877563595772,0.024486755952239037,0.020203040912747383,5.848573207855225,64.10542297363281
S10,window31,31,2,meditation,4,4920.0,4980.0,1.0,0.0,0.0,0,0,0.021354166666666667,0,76,0,1.0,0.8266666666666667,1.0,0.781875,0.7927730104141845,0.727780669927597,0.6200860142707825,0.7008858780614904,1,0.9008195342875901,0.49096107575946113,0.7954931415580098,0.3728720752594556,0.9008195342875901,1,0.8528944849967957,0.8528944849967957,0.6832091212912423,-0.024756064911350295,1,1.0,0,904.0,0.003511064685881138,0.004768280778080225,0.03306696563959122,0.02829868532717228,0.006785384379327297,0.0016054683364927769,0.013699537143111229,0.011372974142432213,5.732268333435059,38.121185302734375
S10,window32,32,2,meditation,4,4980.0,5040.0,1.0,0.0,0.0,0,0,0.024739583333333332,0,76,0,1.0,0.9333333333333333,1.0,0.7829166666666667,0.9163924670529505,0.42678746581077576,0.4235692322254181,0.7264200104220948,1,-0.17739006719808817,0.12071168975511846,0.08043912511293799,-0.15260806644291097,0.12071168975511846,0,0.3777764141559601,0.3777764141559601,0.8104734320336225,0.4380185690599714,1,1.0,0,943.0,0.005928654223680496,0.005991594400256872,0.036264918744564056,0.030273323878645897,0.006926033645868301,0.003400484099984169,0.02795514650642872,0.022858107462525368,6.216527462005615,110.22541809082031
S10,window33,33,2,meditation,4,5040.0,5100.0,1.0,0.0,0.0,0,0,0.024479166666666666,0,77,0,1.0,0.9605263157894737,1.0,0.7835115131578947,0.9178564274353102,0.44880667328834534,0.4070274531841278,0.7180823345492444,1,-0.04971123226388195,0.18850214711507834,0.3088880308170801,-0.08343939449567013,0.3088880308170801,0,0.376482218503952,0.376482218503952,0.8219192326959873,0.4533414514138039,1,1.0,0,890.0,0.0064053889364004135,0.005683463532477617,0.034335993230342865,0.028652528300881386,0.006618129089474678,0.0030630636028945446,0.02689884975552559,0.022229809314012527,6.141435623168945,140.4866943359375
S10,window34,34,2,meditation,4,5100.0,5160.0,1.0,0.0,0.0,0,0,0.02265625,0,79,0,1.0,0.8461538461538461,1.0,0.7548076923076923,0.7520026511229934,0.7760635018348694,0.34142372012138367,0.655549765502866,1,-0.07496796242400439,0.173840925459017,0.32562755912941455,-0.06856411657118765,0.32562755912941455,0,0.27649715542793274,0.27649715542793274,0.7364126182556432,0.5593655366576868,1,1.0,0,923.0,0.0065809134393930435,0.006287931464612484,0.038124341517686844,0.031836409121751785,0.007245282642543316,0.0035986173897981644,0.027392754331231117,0.022875769063830376,6.208874702453613,62.08466339111328
S10,window35,35,2,meditation,4,5160.0,5220.0,1.0,0.0,0.0,0,0,0.02265625,0,80,0,1.0,0.8354430379746836,1.0,0.7515822784810127,0.7309761711791264,0.8787283301353455,0.4015059769153595,0.6951537258989057,1,-0.1452883394451542,0.21889634391077412,0.22085631933446603,-0.14742339647603017,0.22085631933446603,0,0.37676751613616943,0.37676751613616943,0.7157933149299944,0.4762915205848537,1,1.0,0,922.0,0.006784028373658657,0.0066152955405414104,0.038150932639837265,0.03153563663363457,0.007966766133904457,0.003428291529417038,0.028495775535702705,0.02379102259874344,6.101581573486328,91.77812957763672
S10,window36,36,2,meditation,4,5220.0,5280.0,1.0,0.0,0.0,0,0,0.023177083333333334,0,76,0,1.0,0.8933333333333333,1.0,0.7954166666666667,0.9657147518295367,0.25081632286310196,0.14394186437129974,0.2365815528921313,1,-0.13456293083272794,-0.1929649745804249,0.3302328286430139,-0.14348772723465367,0.3302328286430139,0,0.1637505143880844,0.1637505143880844,0.8306727074433858,0.6083822542850752,1,1.0,0,913.0,0.006596590392291546,0.006460004951804876,0.03752312436699867,0.03106311894953251,0.007533723022788763,0.0036022961139678955,0.027715295553207397,0.023127445951104164,6.169139862060547,61.62128829956055
S11,window1,1,0,baseline,1,120.0,180.0,1.0,0.0,0.0,0,0,0.020833333333333332,0,74,0,1.0,0.9041095890410958,1.0,0.8065068493150684,0.7471331542392831,0.8530943989753723,0.9820446372032166,0.5247524752475248,1,0.7058451899217333,0.8127616962222571,0.7848548203890467,0.6815325647006456,0.8127616962222571,0,2.1690382957458496,1.0,0.6857837818882232,-0.12871023498400747,1,1.0,0,930.0,0.006055031903088093,0.007525493856519461,0.04693945497274399,0.03941395878791809,0.010361538268625736,0.0029619280248880386,0.022728711366653442,0.01915740594267845,5.756221771240234,188.38531494140625
S11,window2,2,0,baseline,1,180.0,240.0,1.0,0.0,0.0,0,0,0.024479166666666666,0,76,0,1.0,0.9333333333333333,1.0,0.7816666666666666,0.8440315370640608,1.0,0.2766568064689636,0.5273579989577906,1,-0.18042807610129888,-0.413424422995805,0.14583677896494068,-0.48165435282813157,0.14583677896494068,0,0.2928869426250458,0.2928869426250458,0.797254100190047,0.6481209416409695,1,1.0,0,858.0,0.00499593373388052,0.005194382276386023,0.030412591993808746,0.025218209251761436,0.006482688244432211,0.0024952758103609085,0.020400557667016983,0.017111262306571007,5.967034816741943,181.7566375732422
S11,window3,3,0,baseline,1,240.0,300.0,1.0,0.0,0.0,0,0,0.024479166666666666,0,76,0,1.0,0.84,1.0,0.793125,0.9586699551515642,1.0,0.4820152819156647,0.47628973423658155,1,0.7375052321436981,0.5735388541223155,0.7117318626281199,0.6566578976497321,0.7375052321436981,0,0.6322779059410095,0.6322779059410095,0.7603731959513682,0.30938958284688156,1,1.0,0,890.0,0.0058277565985918045,0.00596640445291996,0.03504272922873497,0.02907632291316986,0.007713659666478634,0.0026768152602016926,0.023145079612731934,0.019728384912014008,5.9789581298828125,45.27189254760742
S11,window4,4,0,baseline,1,300.0,360.0,1.0,0.0,0.0,0,0,0.022135416666666668,0,84,0,1.0,0.7590361445783133,1.0,0.7163027108433735,0.9707460032546009,1.0,0.8152263760566711,0.5831162063574779,1,0.8105352795728941,0.6952250713446296,0.7868649203489455,0.7707633405530202,0.8105352795728941,0,1.2159199714660645,1.0,0.6948382588077057,-0.07960265581285575,1,1.0,0,951.0,0.0067690094001591206,0.006616153288632631,0.04355154186487198,0.036935389041900635,0.007910463958978653,0.0034115882590413094,0.02865276299417019,0.02426644042134285,6.205082893371582,34.15573501586914
S11,window5,5,0,baseline,1,360.0,420.0,1.0,0.0,0.0,0,0,0.023177083333333334,0,75,0,1.0,0.9459459459459459,1.0,0.7994087837837838,0.9852834924764969,1.0,0.5211766958236694,0.49713392391870764,1,0.7063961179025932,0.597642757942592,0.48137804992017824,0.4530536057922809,0.7063961179025932,0,0.699077844619751,0.699077844619751,0.8040556416593523,0.28102681228315696,1,1.0,0,915.0,0.005312641616910696,0.006353279110044241,0.039642561227083206,0.03328928351402283,0.008349471725523472,0.002789984457194805,0.021808570250868797,0.017996257171034813,5.902763366699219,136.21583557128906
S11,window6,6,0,baseline,1,420.0,480.0,1.0,0.0,0.0,0,0,0.021614583333333333,0,80,0,1.0,0.8607594936708861,1.0,0.7420886075949367,0.9816699413642177,1.0,1.042454481124878,0.7243355914538823,1,0.7564480373623079,0.7180084148630678,0.7016587014248817,0.7685550223959149,0.7685550223959149,0,1.4297417402267456,1.0,0.7388047798776197,-0.046354666557679725,1,1.0,0,870.0,0.005347938276827335,0.006103270687162876,0.04358670487999916,0.03748343512415886,0.008191988803446293,0.0023764981888234615,0.01998317614197731,0.017042376101017,5.851917743682861,71.7633056640625
S11,window7,7,0,baseline,1,480.0,540.0,1.0,0.0,0.0,0,0,0.022395833333333334,0,79,0,1.0,0.6538461538461539,1.0,0.7566105769230769,0.6736184985067523,0.9804500341415405,1.3722585439682007,0.805106826472121,1,0.8382673875333154,0.8284672512895137,0.8282489346812977,0.8447600511378655,0.8447600511378655,0,2.100287437438965,1.0,0.5636240110904872,-0.19032902068408064,1,1.0,0,913.0,0.006845274940133095,0.0064976452849805355,0.040475159883499146,0.03397751227021217,0.008170545101165771,0.002896331250667572,0.027849556878209114,0.023817524313926697,6.0758957862854,43.76387405395508
S11,window8,8,0,baseline,1,540.0,600.0,1.0,0.0,0.0,0,0,0.022135416666666668,0,77,0,1.0,0.881578947368421,1.0,0.7775493421052632,0.9734615445874899,1.0,0.8203222155570984,0.6081292339760291,1,0.5756138374068315,0.6354407052617851,0.7341134478731423,0.6137000506786916,0.7341134478731423,0,1.744653582572937,1.0,0.7446700423236153,-0.04216092964260132,1,1.0,0,874.0,0.005299253389239311,0.006388947833329439,0.04343978315591812,0.03705083578824997,0.008708353154361248,0.002594510093331337,0.020141709595918655,0.01653503254055977,5.808078765869141,46.11111831665039
S11,window9,9,0,baseline,1,600.0,660.0,1.0,0.0,0.0,0,0,0.023697916666666666,0,72,0,1.0,0.9436619718309859,1.0,0.8351672535211268,0.9848459461869432,1.0,0.28186148405075073,0.4137571651902032,1,0.6858557929642063,0.6865128832798051,0.7503238718852673,0.014638664524830139,0.7503238718852673,0,0.23164813220500946,0.23164813220500946,0.8497537593679765,0.7476619458910221,1,1.0,0,908.0,0.004864879883825779,0.0053258538246154785,0.03156128525733948,0.026235431432724,0.006811859551817179,0.0024539828300476074,0.019909445196390152,0.01654300093650818,6.012998104095459,71.66313934326172
S11,window10,10,0,baseline,1,660.0,720.0,1.0,0.0,0.0,0,0,0.021614583333333333,0,77,0,1.0,0.868421052631579,1.0,0.7833059210526315,0.9623801284166066,1.0,0.8227801322937012,0.5862428348097968,1,0.7800222471511962,0.7761541610950161,0.7551512448203758,0.8296670257930836,0.8296670257930836,0,1.1416115760803223,1.0,0.7360824595776135,-0.048878652106374654,1,1.0,0,884.0,0.00648157624527812,0.0068960245698690414,0.04171648994088173,0.03482046723365784,0.00871135201305151,0.003167897928506136,0.024039587005972862,0.02069009654223919,6.032614707946777,41.30128860473633
S11,window11,11,0,baseline,1,720.0,780.0,1.0,0.0,0.0,0,0,0.021614583333333333,0,76,0,1.0,0.76,1.0,0.789375,0.9042914277144982,1.0,1.088497519493103,0.7660239708181344,1,0.7763684143307332,0.7094970504113923,0.7576173522119856,0.5041542013701853,0.7763684143307332,0,1.7765573263168335,1.0,0.6752874283143494,-0.09592714307137551,1,1.0,0,875.0,0.005602648947387934,0.005977404769510031,0.04041655734181404,0.03443915396928787,0.0077211614698171616,0.0025927741080522537,0.02106097713112831,0.017609843984246254,5.980515956878662,26.66717529296875
S11,window12,12,0,baseline,1,780.0,840.0,1.0,0.0,0.0,0,0,0.022135416666666668,0,80,0,1.0,0.6329113924050633,1.0,0.7509889240506329,0.7146628767040019,0.827772855758667,1.2054283618927002,0.7238144867118291,1,0.8486283578935253,0.8988698380717574,0.8007980276232409,0.9128117412190567,0.9128117412190567,1,1.6658886671066284,1.0,0.5675634199732259,-0.2245176491628138,1,1.0,0,909.0,0.006619242951273918,0.006916163023561239,0.04353993386030197,0.036623772233724594,0.008759088814258575,0.002996232360601425,0.02811283804476261,0.02336166240274906,6.062417507171631,32.68092346191406
S11,window13,13,0,baseline,1,840.0,900.0,1.0,0.0,0.0,0,0,0.021614583333333333,0,76,0,0.9866666666666667,0.72,0.9866666666666667,0.78375,0.7297712639880239,0.7637613415718079,1.5624970197677612,0.7665450755601876,1,0.8556331131751794,0.8448599175358146,0.8553908232808521,0.8377094733636754,0.8556331131751794,0,2.0005955696105957,1.0,0.6042647125297406,-0.21328351527670875,1,1.0,0,927.0,0.007055881433188915,0.007029558066278696,0.04333542287349701,0.03630586713552475,0.008718663826584816,0.003336261957883835,0.030295392498373985,0.02486286871135235,6.112200736999512,32.59199142456055
S11,window14,14,0,baseline,1,900.0,960.0,1.0,0.0,0.0,0,0,0.021875,0,80,0,1.0,0.7341772151898734,1.0,0.7486155063291139,0.9623070741862773,1.0,1.2916314601898193,0.5612298071912455,1,0.7954398526267447,0.7241964436166621,0.8187556651949147,0.586181988714836,0.8187556651949147,0,1.8608522415161133,1.0,0.6823630083318325,-0.08917006689646856,1,1.0,0,906.0,0.006636869627982378,0.007020678836852312,0.04188453033566475,0.034863851964473724,0.009210891090333462,0.0028825881890952587,0.024401985108852386,0.02066824585199356,5.991593837738037,36.98624038696289
S11,window15,15,0,baseline,1,960.0,1020.0,1.0,0.0,0.0,0,0,0.02421875,0,72,0,1.0,0.9295774647887324,1.0,0.8386883802816901,0.8814753986141814,1.0,0.49259963631629944,0.5179781136008338,1,0.816279958661803,0.612870387830995,0.4916885861240962,0.2581486003068032,0.816279958661803,0,1.1105321645736694,1.0,0.7362736054997473,-0.05075791090983495,1,1.0,0,911.0,0.004886499606072903,0.005478186998516321,0.03540468215942383,0.029926495626568794,0.007253200747072697,0.0023051626048982143,0.01977584697306156,0.016518017277121544,5.936076641082764,40.74394989013672
S11,window16,16,0,baseline,1,1020.0,1080.0,1.0,0.0,0.0,0,0,0.020833333333333332,0,83,0,1.0,0.7560975609756098,1.0,0.7189405487804879,0.938471986512664,1.0,1.4830045700073242,0.6190724335591454,1,0.814936471104357,0.8020840609079293,0.8840328496304133,0.6396968829882301,0.8840328496304133,0,2.1136679649353027,1.0,0.6839806203440432,-0.08855273507915107,1,1.0,0,960.0,0.005968497600406408,0.0068866596557199955,0.04572920873761177,0.03884255141019821,0.008983762934803963,0.00305416202172637,0.024463173002004623,0.020484788343310356,6.002678871154785,58.19886016845703
S11,window17,17,0,baseline,1,1080.0,1140.0,1.0,0.0,0.0,0,0,0.022395833333333334,0,72,0,1.0,0.9154929577464789,1.0,0.8378080985915493,0.970834021688799,1.0,0.2329348921775818,0.26055237102657636,1,0.811333817005777,0.6727613812168507,0.8180995116549664,0.8382042732202496,0.8382042732202496,0,0.48664817214012146,0.48664817214012146,0.8087825723912191,0.4807082206060218,1,1.0,0,898.0,0.0054292380809783936,0.006088353227823973,0.039692915976047516,0.033604562282562256,0.007770051248371601,0.0029119052924215794,0.022339634597301483,0.0185869000852108,6.0155534744262695,26.406391143798828
S11,window18,18,0,baseline,1,1140.0,1200.0,1.0,0.0,0.0,0,0,0.0234375,0,74,0,1.0,0.821917808219178,1.0,0.8047945205479452,0.9641857211724971,1.0,0.23975932598114014,0.3699843668577384,1,0.4924676323531244,0.5199865995928379,0.42962436330849485,0.4147170815918549,0.5199865995928379,0,0.2867998480796814,0.2867998480796814,0.7893428548314521,0.6508219246791963,1,1.0,0,877.0,0.00612625852227211,0.0065911742858588696,0.038397349417209625,0.03180617466568947,0.00829600915312767,0.003055321052670479,0.022975055500864983,0.019040541723370552,6.002885818481445,85.94340515136719
S11,window19,19,0,baseline,1,1200.0,1260.0,1.0,0.0,0.0,0,0,0.024739583333333332,0,72,0,0.9859154929577465,0.6056338028169014,0.9859154929577465,0.8177816901408451,0.8048111716161341,0.6841138303279877,1.2754006385803223,0.7576862949452841,1,0.8043411538640688,0.805875244509166,0.8254714668819471,0.8567242548328347,0.8567242548328347,0,1.656509280204773,1.0,0.5808799712031502,-0.24889551007734978,1,1.0,0,904.0,0.006987208500504494,0.0065586562268435955,0.04030299186706543,0.03374433517456055,0.008107825182378292,0.003218448720872402,0.030940894037485123,0.02531120553612709,6.112707614898682,13.673274040222168
S11,window20,20,1,stress,2,1920.0,1980.0,1.0,0.0,0.0,0,0,0.024739583333333332,0,88,0,1.0,0.5402298850574713,1.0,0.6855244252873564,0.7167447303640827,0.8751316964626312,6.988925933837891,0.982803543512246,1,0.8757274450831133,0.9192822984940214,0.951952642317986,0.6059846225191796,0.951952642317986,1,8.56060791015625,1.0,0.5311153731322135,-0.23996192777608005,1,1.0,0,972.0,0.006980551406741142,0.00680964533239603,0.04678258299827576,0.039972934871912,0.008321552537381649,0.003487030975520611,0.026750020682811737,0.021961256861686707,6.176631450653076,38.571434020996094
S11,window21,21,1,stress,2,1980.0,2040.0,1.0,0.0,0.0,0,0,0.022916666666666665,0,82,0,0.9753086419753086,0.5308641975308642,0.9753086419753086,0.7332175925925926,0.6528664158464386,0.7769060730934143,7.045239448547363,0.986451276706618,1,0.9264289709605035,0.9340814535650731,0.9136730557307307,0.7027117129215549,0.9340814535650731,1,8.664011001586914,1.0,0.503267332161339,-0.2882358901107158,1,1.0,0,995.0,0.007757317274808884,0.007549066562205553,0.04736647009849548,0.03981740400195122,0.009206702932715416,0.003876706585288048,0.029011117294430733,0.024289915338158607,6.196073532104492,49.983585357666016
S11,window22,22,1,stress,2,2040.0,2100.0,1.0,0.0,0.0,0,0,0.02109375,0,79,0,1.0,0.6410256410256411,1.0,0.7481971153846154,0.7653229812405071,0.6493982672691345,7.355595588684082,0.9869723814486712,1,0.926891719985833,0.9542069892471967,0.8402160228101718,0.5800910825665737,0.9542069892471967,1,9.000252723693848,1.0,0.5860071507824086,-0.2540119955648972,1,1.0,0,958.0,0.007313298527151346,0.0068924012593925,0.04174647107720375,0.03485407307744026,0.008264664560556412,0.0035231448709964752,0.027920477092266083,0.023033004254102707,6.209069728851318,27.256031036376953
S11,window23,23,1,stress,2,2100.0,2160.0,1.0,0.0,0.0,0,0,0.021875,0,76,0,0.92,0.52,0.92,0.7752083333333334,0.7121061728839259,0.720583438873291,6.111081123352051,0.962480458572173,1,0.9138348490785797,0.9229708899285564,0.901765571778682,0.6597993330657052,0.9229708899285564,1,7.581770420074463,1.0,0.5056318518651778,-0.30182759706069573,1,1.0,0,959.0,0.006155068054795265,0.007939381524920464,0.05098329484462738,0.043043915182352066,0.011533651500940323,0.002467803657054901,0.024000220000743866,0.019771099090576172,5.637106895446777,178.87887573242188
S11,window24,24,1,stress,2,2160.0,2220.0,1.0,0.0,0.0,0,0,0.022135416666666668,0,70,0,0.8985507246376812,0.42028985507246375,0.8985507246376812,0.8605072463768116,0.700437691915583,0.8528079688549042,4.309297561645508,0.9004689942678479,1,0.87464101524904,0.8550833313548352,0.8991341574958449,0.4616791010570274,0.8991341574958449,0,5.506732940673828,1.0,0.45795739453119666,-0.3058914833581028,1,1.0,0,929.0,0.0060565173625946045,0.007358411327004433,0.048990648239851,0.041632238775491714,0.010373354889452457,0.0022869324311614037,0.02074289880692959,0.017763590440154076,5.853580951690674,25.567916870117188
S11,window25,25,1,stress,2,2220.0,2280.0,1.0,0.0,0.0,0,0,0.021875,0,93,0,0.9891304347826086,0.6195652173913043,0.9891304347826086,0.6496263586956522,0.6053733180727942,0.846575915813446,1.2201917171478271,0.7686294945284002,1,0.6885261635356064,0.8885920711996109,0.22167580223246305,0.25165042561375217,0.8885920711996109,0,2.362445116043091,1.0,0.5272641693348817,-0.253317039354527,1,1.0,0,961.0,0.0032106470316648483,0.00534579623490572,0.03988992050290108,0.03454412519931793,0.00809836108237505,0.0014648078940808773,0.010007415898144245,0.00810144655406475,5.566117763519287,41.29499053955078
S11,window26,26,1,stress,2,2280.0,2340.0,1.0,0.0,0.0,0,0,0.021354166666666667,0,66,0,0.8615384615384616,0.35384615384615387,0.8615384615384616,0.9105769230769231,0.7156071396797178,0.8551594316959381,1.5965921878814697,0.8337675872850443,1,0.9366022718787066,0.7921670159626029,0.881447296054714,0.6732418182848295,0.9366022718787066,1,2.5640106201171875,1.0,0.42852829575006923,-0.32884681869454746,1,1.0,0,946.0,0.0028255414217710495,0.005133190657943487,0.03981499746441841,0.034681808203458786,0.008063634857535362,0.0012354974169284105,0.007492068223655224,0.006045511923730373,5.338584899902344,77.97218322753906
S11,window27,27,1,stress,2,2340.0,2400.0,1.0,0.0,0.0,0,0,0.0234375,0,87,0,1.0,0.5116279069767442,1.0,0.6931322674418605,0.6948649872536261,0.7937369346618652,1.3210033178329468,0.8514851485148515,1,0.19587690697486088,0.6855294532227304,0.8188423584648519,0.23555918066713105,0.8188423584648519,0,1.929944634437561,1.0,0.5131106589667856,-0.2743611474281038,1,1.0,0,954.0,0.005320284515619278,0.0064905863255262375,0.041382260620594025,0.034891676157712936,0.008838271722197533,0.002597362268716097,0.018942415714263916,0.015132209286093712,5.811131477355957,98.5309066772461
S11,window28,28,1,stress,2,2400.0,2460.0,1.0,0.0,0.0,0,0,0.022395833333333334,0,90,0,1.0,0.5842696629213483,1.0,0.6643258426966292,0.746415064635818,0.8147592544555664,2.128324508666992,0.8952579468473163,1,0.16707360172040167,0.7785375139349865,0.9382783795019896,0.29286353797919634,0.9382783795019896,1,2.783015251159668,1.0,0.5576323845592848,-0.23442552135074934,1,1.0,0,954.0,0.005957918707281351,0.006746652536094189,0.04594927281141281,0.03920261934399605,0.008729242719709873,0.002927991561591625,0.022719988599419594,0.01896144077181816,6.001494407653809,89.33524322509766
S11,window29,29,1,stress,2,2460.0,2520.0,1.0,0.0,0.0,0,0,0.021354166666666667,0,104,0,1.0,0.6019417475728155,1.0,0.5782766990291263,0.6631987392588514,0.7671436071395874,1.0727448463439941,0.8467952058363731,1,0.2981869946302503,0.9065254408314376,0.7747830876731641,0.04816403487876291,0.9065254408314376,1,1.5052127838134766,1.0,0.5397363208067817,-0.2618318891285456,1,1.0,0,982.0,0.006416368763893843,0.0065551321022212505,0.04258299618959427,0.03602786362171173,0.007844777777791023,0.0035076579079031944,0.02680044062435627,0.02174859121441841,6.228174686431885,24.35536003112793
S11,window30,30,1,stress,2,2520.0,2580.0,1.0,0.0,0.0,0,0,0.025520833333333333,0,105,0,1.0,0.6442307692307693,1.0,0.572265625,0.689435945706943,0.849543571472168,0.6578815579414368,0.6868160500260553,1,-0.2077237510880281,0.7214562570785842,0.8681509879965484,-0.08489158611083036,0.8681509879965484,0,0.8691527843475342,0.8691527843475342,0.5776078129696373,-0.09113867428352562,1,1.0,0,989.0,0.009040217846632004,0.007965993136167526,0.043859221041202545,0.03589322790503502,0.00839796382933855,0.005225434899330139,0.036969222128391266,0.030284445732831955,6.416656970977783,16.341888427734375
S11,window31,31,2,meditation,4,4740.0,4800.0,1.0,0.0,0.0,0,0,0.022916666666666665,0,84,0,1.0,0.7590361445783133,1.0,0.7174322289156626,0.8594006284618326,0.9974519908428192,0.3100067675113678,0.4747264200104221,1,-0.32628652368620653,0.3047783102426017,0.4770160235357142,-0.5295330748033859,0.4770160235357142,0,0.24370691180229187,0.24370691180229187,0.737063955189646,0.6482170863973651,1,1.0,0,938.0,0.007671009283512831,0.00777090061455965,0.04360974207520485,0.03583884239196777,0.008962515741586685,0.004346420057117939,0.030247438699007034,0.02430735155940056,6.238911151885986,23.94506072998047
S11,window32,32,2,meditation,4,4800.0,4860.0,1.0,0.0,0.0,0,0,0.022395833333333334,0,89,0,1.0,0.7045454545454546,1.0,0.6729403409090909,0.9314770156721333,1.0,0.30645647644996643,0.49713392391870764,1,-0.6070085500050455,0.36694278206414355,0.39550253942092795,-0.6287180806440151,0.39550253942092795,0,0.23103643953800201,0.23103643953800201,0.7381576425660217,0.6631964507436676,1,1.0,0,995.0,0.008475045673549175,0.0076624066568911076,0.045626893639564514,0.03796448931097984,0.008739645592868328,0.004394097253680229,0.034184571355581284,0.028718993067741394,6.331875801086426,15.70678424835205
S11,window33,33,2,meditation,4,4860.0,4920.0,1.0,0.0,0.0,0,0,0.025260416666666667,0,89,0,1.0,0.8181818181818182,1.0,0.6766690340909091,0.9272525934043986,1.0,0.2853153944015503,0.477853048462741,1,-0.45786329031776046,0.1495614149461076,0.4146080971221958,-0.34716377778607305,0.4146080971221958,0,0.21031154692173004,0.21031154692173004,0.7844173506018738,0.7169561468839151,1,1.0,0,971.0,0.008683589287102222,0.007762879133224487,0.046803366392850876,0.03904048725962639,0.008810121566057205,0.0045206863433122635,0.034265127032995224,0.027712451294064522,6.31715202331543,7.83951997756958
S11,window34,34,2,meditation,4,4920.0,4980.0,1.0,0.0,0.0,0,0,0.021614583333333333,0,91,0,1.0,0.6888888888888889,1.0,0.6607638888888889,0.8763953290400743,0.9582975506782532,0.4267910122871399,0.5497655028660761,1,-0.44540714705951145,0.6962415367091478,0.8105237373012291,-0.4896383744035955,0.8105237373012291,0,0.5057429075241089,0.5057429075241089,0.687899863515167,0.3595969790721396,1,1.0,0,993.0,0.005481516942381859,0.006484988611191511,0.04283158853650093,0.03634659945964813,0.00889630988240242,0.00250927172601223,0.019490735605359077,0.015985073521733284,5.867993354797363,185.8353729248047
S11,window35,35,2,meditation,4,4980.0,5040.0,1.0,0.0,0.0,0,0,0.023177083333333334,0,91,0,1.0,0.7555555555555555,1.0,0.6614583333333334,0.8291773984259944,0.8873798847198486,0.3400416672229767,0.40958832725377803,1,-0.5971136874925018,0.3104766846486917,0.23105914172338374,-0.595555726715721,0.3104766846486917,0,0.27157706022262573,0.27157706022262573,0.723817735727758,0.5842289272305017,1,1.0,0,1012.0,0.008745399303734303,0.00834268145263195,0.048115864396095276,0.039773184806108475,0.009506271220743656,0.00494878925383091,0.03717147558927536,0.03036859631538391,6.343781471252441,23.689599990844727
S13,window1,1,0,baseline,1,120.0,180.0,1.0,0.0,0.0,0,0,0.023177083333333334,0,75,0,0.9864864864864865,0.6486486486486487,0.9864864864864865,0.7994087837837838,0.7734125147896831,1.0,2.0010766983032227,0.7186034392912976,1,0.9324881864794465,0.8725345734521719,0.8580417265474037,0.8195468442531505,0.9324881864794465,1,2.8680167198181152,1.0,0.5887805111936617,-0.16475497941068729,1,1.0,0,920.0,0.0070515163242816925,0.007439808454364538,0.04309108853340149,0.035651277750730515,0.009721197187900543,0.003082612529397011,0.02293350175023079,0.01897491328418255,5.9783220291137695,77.4246826171875
S13,window2,2,0,baseline,1,180.0,240.0,1.0,0.0,0.0,0,0,0.021614583333333333,0,87,0,1.0,0.7906976744186046,1.0,0.688953488372093,0.9212332937669221,1.0,1.2103055715560913,0.6050026055237102,1,0.6255255221367677,0.7394163157595277,0.6536972365274447,0.2691354582302095,0.7394163157595277,0,2.3957841396331787,1.0,0.6926490578975185,-0.08248237423268812,1,1.0,0,962.0,0.00641143973916769,0.00758860819041729,0.04807749390602112,0.04048888757824898,0.010309239849448204,0.0029909389559179544,0.02588997595012188,0.0216376930475235,5.934445858001709,51.60920715332031
S13,window3,3,0,baseline,1,240.0,300.0,1.0,0.0,0.0,0,0,0.022916666666666665,0,94,0,1.0,0.5913978494623656,1.0,0.6379368279569892,0.6820323920570824,0.9275487661361694,1.5308960676193237,0.7660239708181344,1,0.7104018535979725,0.8106944300412491,0.6821192217432344,0.5588188502937196,0.8106944300412491,0,2.430623769760132,1.0,0.5411688574020711,-0.22018535561297736,1,1.0,0,923.0,0.008237559348344803,0.0081578828394413,0.047769129276275635,0.039611246436834335,0.010133452713489532,0.004037480801343918,0.02979530580341816,0.024352407082915306,6.091403484344482,40.31395721435547
S13,window4,4,0,baseline,1,300.0,360.0,1.0,0.0,0.0,0,0,0.022916666666666665,0,86,0,1.0,0.6941176470588235,1.0,0.6941176470588235,0.8086531357415463,0.9036470651626587,0.9342073798179626,0.7076602397081814,1,0.16706370367487797,0.6222576787764719,0.7143936943481192,-0.6775064766938398,0.7143936943481192,0,1.6130579710006714,1.0,0.6202429995459934,-0.16368965565630167,1,1.0,0,949.0,0.00667043961584568,0.006907836068421602,0.04327363893389702,0.036365803331136703,0.008619942702353,0.003329196944832802,0.026610128581523895,0.02227611094713211,6.071086406707764,95.16159057617188
S13,window5,5,0,baseline,1,360.0,420.0,1.0,0.0,0.0,0,0,0.023177083333333334,0,83,0,1.0,0.7195121951219512,1.0,0.7250381097560976,0.8795549173609252,0.9135472476482391,1.9325356483459473,0.7279833246482543,1,0.8349225937352347,0.8758371649061483,0.8393150604910561,0.7326354344440678,0.8758371649061483,0,3.0800793170928955,1.0,0.651671353257058,-0.13587080021112352,1,1.0,0,938.0,0.006973401643335819,0.007342785596847534,0.04381655156612396,0.03647376596927643,0.009626504965126514,0.0030157105065882206,0.025584708899259567,0.02092791721224785,5.999404430389404,44.037811279296875
S13,window6,6,0,baseline,1,420.0,480.0,1.0,0.0,0.0,0,0,0.023177083333333334,0,84,0,0.9879518072289156,0.6385542168674698,0.9879518072289156,0.7146084337349398,0.830183227380962,1.0,1.7142995595932007,0.8045857217300677,1,0.7849175312713829,0.7437367960181159,0.7344209156046974,0.863239952224373,0.863239952224373,0,2.05354642868042,1.0,0.6020670164070596,-0.1532975666487355,1,1.0,0,884.0,0.0076161096803843975,0.0077073657885193825,0.04824115335941315,0.04053378850221634,0.010398976504802704,0.0030642757192254066,0.024795614182949066,0.01994382217526436,5.857428073883057,140.567138671875
S13,window7,7,0,baseline,1,480.0,540.0,1.0,0.0,0.0,0,0,0.02265625,0,94,0,1.0,0.6774193548387096,1.0,0.6387768817204301,0.8674953929275714,1.0,1.6977139711380005,0.6899426784783742,1,0.9262230685249361,0.8653347631453653,0.7765850077001375,0.7820886808828728,0.9262230685249361,1,2.1045639514923096,1.0,0.6312163598137553,-0.1299003453164942,1,1.0,0,948.0,0.00774616003036499,0.007407002616673708,0.047017164528369904,0.03961016237735748,0.009167644195258617,0.003549053333699703,0.02877126634120941,0.02456226944923401,6.133108615875244,40.18358612060547
S13,window8,8,0,baseline,1,540.0,600.0,1.0,0.0,0.0,0,0,0.02265625,0,86,0,1.0,0.8,1.0,0.7009191176470588,0.9385778652270838,1.0,0.35282012820243835,0.45231891610213654,1,0.4740726905242816,-0.08540798616969775,-0.5313029929994291,-0.6501267936400112,0.4740726905242816,0,0.2975758910179138,0.2975758910179138,0.7718157704663338,0.6270685752888572,1,1.0,0,905.0,0.00788145512342453,0.00737497815862298,0.044850077480077744,0.0374750979244709,0.008808366023004055,0.003952007740736008,0.031111033633351326,0.026070306077599525,6.163584232330322,17.011159896850586
S13,window9,9,0,baseline,1,600.0,660.0,1.0,0.0,0.0,0,0,0.022135416666666668,0,87,0,1.0,0.813953488372093,1.0,0.6865915697674418,0.9688053668672627,1.0,0.39755934476852417,0.4486711829077645,1,0.9195969078389096,0.5724268000061536,0.79755977504272,0.8816063171528408,0.9195969078389096,1,0.6753062009811401,0.6753062009811401,0.748692385310902,0.26108118724730345,1,1.0,0,921.0,0.0059813037514686584,0.006993870250880718,0.04587695002555847,0.03888307884335518,0.009452123194932938,0.0026707975193858147,0.024392398074269295,0.021050257608294487,5.9230732917785645,30.225238800048828
S13,window10,10,0,baseline,1,660.0,720.0,1.0,0.0,0.0,0,0,0.022395833333333334,0,81,0,1.0,0.8,1.0,0.7443359375,0.7973651387515783,0.9536497294902802,0.7479059100151062,0.7790515893694633,1,0.8434959741228393,0.7172719902708652,0.7380842529816832,0.4269003860588245,0.8434959741228393,0,1.0321272611618042,1.0,0.6592095416254736,-0.12224628293953543,1,1.0,0,974.0,0.006822587456554174,0.006287319585680962,0.04317827150225639,0.03689095377922058,0.007401840295642614,0.003289594314992428,0.028634335845708847,0.023678544908761978,6.259753227233887,15.260077476501465
S13,window11,11,0,baseline,1,720.0,780.0,1.0,0.0,0.0,0,0,0.022916666666666665,0,81,0,1.0,0.6875,1.0,0.7427734375,0.8942592249328365,1.0,0.9567466378211975,0.7097446586763939,1,0.7780742945754481,0.5333174813035779,0.8574824633448492,0.6731219699010067,0.8574824633448492,0,1.4197158813476562,1.0,0.643277767479851,-0.12018519376679082,1,1.0,0,912.0,0.007224774453788996,0.006834670435637236,0.044793516397476196,0.03795884549617767,0.008448447100818157,0.0031829639337956905,0.027742009609937668,0.02258494310081005,6.099552631378174,40.87562942504883
S13,window12,12,0,baseline,1,780.0,840.0,1.0,0.0,0.0,0,0,0.02265625,0,87,0,1.0,0.813953488372093,1.0,0.6898619186046512,0.9392067249980771,1.0,0.9621387720108032,0.491401771756123,1,0.8167448212837469,0.8172302460064623,0.6984669471181025,0.6675363277145678,0.8172302460064623,0,1.6099579334259033,1.0,0.7073434128482604,-0.07101227223885287,1,1.0,0,919.0,0.005709591321647167,0.00733537133783102,0.04386812821030617,0.03653275594115257,0.010071292519569397,0.002757804002612829,0.02157003991305828,0.018394459038972855,5.797377586364746,121.6679458618164
S13,window13,13,0,baseline,1,840.0,900.0,1.0,0.0,0.0,0,0,0.021875,0,86,0,1.0,0.8117647058823529,1.0,0.6891544117647059,0.9776756688573838,1.0,0.5980401039123535,0.5106826472120897,1,0.5009454192137488,0.5865466588653278,0.5181435810522299,0.2293991916973058,0.5865466588653278,0,0.7607166171073914,0.7607166171073914,0.7419369212994171,0.17723171187166042,1,1.0,0,869.0,0.006780147552490234,0.00690222904086113,0.040599480271339417,0.03369725123047829,0.008619815111160278,0.003212597221136093,0.027908939868211746,0.02301841601729393,6.041184425354004,19.980127334594727
S13,window14,14,0,baseline,1,900.0,960.0,1.0,0.0,0.0,0,0,0.022395833333333334,0,86,0,1.0,0.8823529411764706,1.0,0.6950367647058824,0.988009420549966,1.0,0.7492824792861938,0.4392912975508077,1,0.7908755530831324,0.7257545840272152,0.6526654623099194,0.67388384163318,0.7908755530831324,0,1.0150951147079468,1.0,0.7493440026355781,-0.03829176250956734,1,1.0,0,867.0,0.006378035061061382,0.007377969101071358,0.046477269381284714,0.039099302142858505,0.010377413593232632,0.0026009362190961838,0.02090728096663952,0.0171058289706707,5.700448989868164,110.86287689208984
S13,window15,15,0,baseline,1,960.0,1020.0,1.0,0.0,0.0,0,0,0.021354166666666667,0,79,0,1.0,0.7051282051282052,1.0,0.7598157051282052,0.8680566044096103,0.9954936802387238,1.1609926223754883,0.6717040125065138,1,0.8403519249601452,0.6992752841748106,0.7149960043322798,0.7247828045668995,0.8403519249601452,0,1.4323461055755615,1.0,0.6424682633741653,-0.12257396729945502,1,1.0,0,899.0,0.004545832052826881,0.006749107036739588,0.044077757745981216,0.03732864931225777,0.009741667658090591,0.0022614244371652603,0.018040627241134644,0.01497669704258442,5.644036293029785,98.17914581298828
S13,window16,16,0,baseline,1,1020.0,1080.0,1.0,0.0,0.0,0,0,0.021875,0,87,0,1.0,0.8604651162790697,1.0,0.6933139534883721,0.9841797669550363,1.0,0.3961705267429352,0.3423658155289213,1,0.5082184925982508,0.5319589483360102,0.3514650659653669,0.7544242271137758,0.7544242271137758,0,0.8906476497650146,0.8906476497650146,0.7503752116216373,0.06353682685746542,1,1.0,0,902.0,0.006264309398829937,0.006502159405499697,0.043433018028736115,0.036930859088897705,0.008520601317286491,0.002726153936237097,0.0252358540892601,0.02097315341234207,5.943120956420898,56.96367263793945
S13,window17,17,0,baseline,1,1080.0,1140.0,1.0,0.0,0.0,0,0,0.022135416666666668,0,86,0,1.0,0.8470588235294118,1.0,0.6919117647058823,0.9208270098854293,1.0,1.8116906881332397,0.7285044293903075,1,0.7572071912152257,0.857153988512049,0.7651966512037024,0.24884702256507915,0.857153988512049,0,2.9493303298950195,1.0,0.7150716323773935,-0.06567560046981913,1,1.0,0,933.0,0.006467908620834351,0.007108565419912338,0.04427938535809517,0.03717081993818283,0.00920562818646431,0.003000214695930481,0.024902040138840675,0.020452335476875305,6.031666278839111,24.95354652404785
S13,window18,18,0,baseline,1,1140.0,1200.0,1.0,0.0,0.0,0,0,0.022135416666666668,0,86,0,1.0,0.8470588235294118,1.0,0.6965073529411765,0.9720269669251851,1.0,1.2979865074157715,0.7357998957790516,1,0.9096667866709844,0.8022521135627309,0.7475683225107328,0.6668260306309488,0.9096667866709844,1,1.7004895210266113,1.0,0.7304316194893202,-0.05287561120988027,1,1.0,0,842.0,0.005731243174523115,0.007009691558778286,0.046651702374219894,0.039642009884119034,0.0092896968126297,0.003028403501957655,0.021684423089027405,0.017763208597898483,5.860953330993652,62.81996154785156
S13,window19,19,0,baseline,1,1200.0,1260.0,1.0,0.0,0.0,0,0,0.023958333333333335,0,86,0,1.0,0.7294117647058823,1.0,0.6943014705882353,0.8469308333492556,1.0,1.1697646379470825,0.7701928087545596,1,0.7529886942328299,0.6921855800353374,0.6691194805060832,0.2867793221744297,0.7529886942328299,0,1.8262498378753662,1.0,0.6458439558871295,-0.11944376225092146,1,1.0,0,929.0,0.0065942490473389626,0.007114003412425518,0.04197271913290024,0.034858714789152145,0.00907553918659687,0.003106558695435524,0.025687023997306824,0.021366747096180916,6.036036968231201,56.16682815551758
S13,window20,20,1,stress,2,3300.0,3360.0,1.0,0.0,0.0,0,0,0.024479166666666666,0,90,0,0.9887640449438202,0.5393258426966292,0.9887640449438202,0.6678370786516854,0.7211214113191458,0.796690046787262,4.951695919036865,0.9775924960917144,1,0.8500074529699974,0.9161889486679119,0.8366649346533389,0.44813929230853883,0.9161889486679119,1,6.389432907104492,1.0,0.5298195694631594,-0.2609965736756453,1,1.0,0,986.0,0.008307825773954391,0.007496844511479139,0.04317234829068184,0.03567550331354141,0.008513489738106728,0.00420086644589901,0.03100789710879326,0.024584583938121796,6.332040786743164,12.231632232666016
S13,window21,21,1,stress,2,3360.0,3420.0,1.0,0.0,0.0,0,0,0.02421875,0,83,0,1.0,0.6341463414634146,1.0,0.7145579268292683,0.7810606885233071,0.7067199349403381,4.852847576141357,0.9567483064095883,1,0.7252204492257486,0.9012462444226271,0.7703151177312286,0.4347296888748079,0.9012462444226271,1,6.587377071380615,1.0,0.587976743142358,-0.23781094169506423,1,1.0,0,979.0,0.008058621548116207,0.007482805289328098,0.044406961649656296,0.036924153566360474,0.008499969728291035,0.004182165488600731,0.034110866487026215,0.028010761365294456,6.316409587860107,15.068388938903809
S13,window22,22,1,stress,2,3420.0,3480.0,1.0,0.0,0.0,0,0,0.02265625,0,91,0,0.9888888888888889,0.6555555555555556,0.9888888888888889,0.6595486111111111,0.7406418540925181,0.8209609687328339,3.8540306091308594,0.9275664408546118,1,0.6264532985176828,0.9003706581513129,0.7758151263018627,0.2368729114918833,0.9003706581513129,1,5.2694292068481445,1.0,0.5821925562277556,-0.2151548498492175,1,1.0,0,986.0,0.008243120275437832,0.008297689259052277,0.04827818647027016,0.03998049348592758,0.010134986601769924,0.004152717534452677,0.032821476459503174,0.026729103177785873,6.195172309875488,40.156776428222656
S13,window23,23,1,stress,2,3480.0,3540.0,1.0,0.0,0.0,0,0,0.022135416666666668,0,90,0,0.9887640449438202,0.6629213483146067,0.9887640449438202,0.6699438202247191,0.7191284928490804,0.850063681602478,3.4930155277252197,0.870244919228765,1,0.9135403584917449,0.8897457293627683,0.8152401336680297,0.5302462289505757,0.9135403584917449,1,4.4642133712768555,1.0,0.5786598961693309,-0.21107274290396438,1,1.0,0,931.0,0.007244286593049765,0.007302781566977501,0.04524937644600868,0.03794659674167633,0.009225334040820599,0.00323585607111454,0.025825459510087967,0.021473750472068787,6.0911149978637695,25.909658432006836
S13,window24,24,1,stress,2,3540.0,3600.0,1.0,0.0,0.0,0,0,0.022395833333333334,0,84,0,0.9879518072289156,0.6746987951807228,0.9879518072289156,0.7100903614457831,0.8707904667662971,0.9623810946941376,1.6686182022094727,0.7535174570088587,1,0.7335301332843629,0.8657188988234554,0.73134169606868,0.5972505784380754,0.8657188988234554,0,2.965769052505493,1.0,0.6287070195479614,-0.14170710963489141,1,1.0,0,909.0,0.006190245971083641,0.007098978850990534,0.04391202703118324,0.03681304678320885,0.0094929663464427,0.0028546079993247986,0.02242792770266533,0.01790381781756878,5.944483280181885,24.54813575744629
S13,window25,25,1,stress,2,3600.0,3660.0,1.0,0.0,0.0,0,0,0.021875,0,97,0,1.0,0.7291666666666666,1.0,0.61767578125,0.750122535724804,0.8426341116428375,1.8983114957809448,0.863470557582074,1,0.39466215151911865,0.857775922641262,0.7580566217122287,-0.6223094524052164,0.857775922641262,0,2.371351718902588,1.0,0.616703427384108,-0.1830608381580896,1,1.0,0,954.0,0.007194976322352886,0.007487311959266663,0.04593680426478386,0.0384494923055172,0.009293489158153534,0.0036399150267243385,0.02553234063088894,0.020454421639442444,6.115857124328613,24.97861099243164
S13,window26,26,1,stress,2,3660.0,3720.0,1.0,0.0,0.0,0,0,0.022395833333333334,0,97,0,1.0,0.78125,1.0,0.6080729166666666,0.8406265878658676,0.9614422917366028,2.6064398288726807,0.8754559666492965,1,0.6307298677768727,0.8258311831134422,0.722443805244631,0.4511896720721146,0.8258311831134422,0,4.275217056274414,1.0,0.6646879763597603,-0.11510778009938238,1,1.0,0,943.0,0.007760151755064726,0.00772051839157939,0.047293007373809814,0.03957248851656914,0.00989406369626522,0.0035055819898843765,0.02728966623544693,0.021273253485560417,6.0262603759765625,108.65309143066406
S13,window27,27,1,stress,2,3720.0,3780.0,1.0,0.0,0.0,0,0,0.021354166666666667,0,87,0,0.9883720930232558,0.627906976744186,0.9883720930232558,0.6800508720930233,0.8041914653044862,0.8888676762580872,1.3080936670303345,0.7649817613340282,1,0.1818852109991218,0.5721567688571761,0.734521117822333,-0.7536873468858953,0.734521117822333,0,2.04829740524292,1.0,0.5900946488936715,-0.1906887029814497,1,1.0,0,1003.0,0.006761233322322369,0.00693188002333045,0.044190555810928345,0.03725867718458176,0.008642773143947124,0.003538619726896286,0.025283684954047203,0.020634721964597702,6.108022689819336,298.3692321777344
S13,window28,28,1,stress,2,3780.0,3840.0,1.0,0.0,0.0,0,0,0.022395833333333334,0,89,0,0.9886363636363636,0.7045454545454546,0.9886363636363636,0.6692116477272727,0.7971687263775487,0.8493897616863251,1.6936476230621338,0.7701928087545596,1,0.7384552176676301,0.9118078881998855,0.5939650881398715,0.34663639437964605,0.9118078881998855,1,3.2047011852264404,1.0,0.6186960724587193,-0.17926946889312245,1,1.0,0,942.0,0.006890940945595503,0.006910183001309633,0.047381382435560226,0.04047119989991188,0.008869620971381664,0.0029383371584117413,0.024268262088298798,0.01968715712428093,6.045100212097168,51.08148956298828
S13,window29,29,1,stress,2,3840.0,3900.0,1.0,0.0,0.0,0,0,0.020833333333333332,0,88,0,1.0,0.7701149425287356,1.0,0.6752873563218391,0.8726536577367221,0.9799034297466278,2.1851606369018555,0.8160500260552371,1,0.3790005281696803,0.73207084131828,0.5402935469450451,0.5402450218846334,0.73207084131828,0,4.509131908416748,1.0,0.669842074332511,-0.10582624537054186,1,1.0,0,939.0,0.006644995883107185,0.007129603996872902,0.043978556990623474,0.03684895485639572,0.009053888730704784,0.003467157483100891,0.02626756764948368,0.021510593593120575,6.025038242340088,59.492645263671875
S13,window30,30,2,meditation,4,4980.0,5040.0,1.0,0.0,0.0,0,0,0.025,0,74,0,1.0,0.9726027397260274,1.0,0.8139982876712328,0.987965408165671,1.0,0.27052274346351624,0.5362167795726941,1,-0.2004997089101923,0.012514610304560414,0.4191235071209461,-0.3201148621494865,0.4191235071209461,0,0.4235251545906067,0.4235251545906067,0.8430782028810515,0.5652470193686192,1,1.0,0,824.0,0.0050514074973762035,0.005665054079145193,0.034540921449661255,0.028875868767499924,0.00705287791788578,0.002694793976843357,0.021470598876476288,0.017492637038230896,5.944657802581787,226.83535766601562
S13,window31,31,2,meditation,4,5040.0,5100.0,1.0,0.0,0.0,0,0,0.0296875,0,72,0,1.0,0.9295774647887324,1.0,0.8338468309859155,0.9853711272921907,1.0,0.21302767097949982,0.3600833767587285,1,-0.08524589359559538,0.010753350393952456,0.35318658699571487,-0.08037463987172966,0.35318658699571487,0,0.1764565408229828,0.1764565408229828,0.8497966700208519,0.7987594804366847,1,1.0,0,865.0,0.004821536131203175,0.004695613868534565,0.03290053457021713,0.028204919770359993,0.005579271353781223,0.0024662353098392487,0.02042235992848873,0.016994154080748558,6.028931617736816,420.1571960449219
S13,window32,32,2,meditation,4,5100.0,5160.0,1.0,0.0,0.0,0,0,0.027864583333333335,0,72,0,1.0,0.9436619718309859,1.0,0.8336267605633803,0.9883623000227657,1.0,0.3081103563308716,0.4325169359041167,1,-0.47165973812204387,0.25513820199550163,0.45064897923885255,-0.431558548287724,0.45064897923885255,0,0.2060834914445877,0.2060834914445877,0.8533651295947654,0.7741056751103994,1,1.0,0,772.0,0.005235430784523487,0.005718512926250696,0.03174056485295296,0.02602205239236355,0.007125888019800186,0.002852443605661392,0.021842919290065765,0.017290011048316956,5.8302788734436035,241.90203857421875
S13,window33,33,2,meditation,4,5160.0,5220.0,1.0,0.0,0.0,0,0,0.023958333333333335,0,74,0,1.0,0.958904109589041,1.0,0.818279109589041,0.9902194774427511,1.0,0.2902081310749054,0.3725898905680042,1,-0.05612500554311162,0.24563939057655954,-0.08723776145417718,-0.19009158925684544,0.24563939057655954,0,0.20966383814811707,0.20966383814811707,0.8596611032536299,0.775562264089283,1,1.0,0,837.0,0.005109366029500961,0.005168571602553129,0.03257518261671066,0.027406612411141396,0.006098774261772633,0.00284733809530735,0.022187596186995506,0.018016081303358078,6.018760681152344,388.8363037109375
S13,window34,34,2,meditation,4,5220.0,5280.0,1.0,0.0,0.0,0,0,0.020833333333333332,0,80,0,1.0,0.8987341772151899,1.0,0.7553401898734177,0.9850983262571746,1.0,0.3147968053817749,0.28608650338718083,1,-0.0008661493534028755,0.7369396551035,0.7614805918965271,-0.558115995139884,0.7614805918965271,0,0.4811112582683563,0.4811112582683563,0.8069120429363927,0.4847835764604942,1,1.0,0,883.0,0.004267791751772165,0.008000069297850132,0.04916579648852348,0.041165728121995926,0.012213150970637798,0.0023872051388025284,0.01762307435274124,0.014518758282065392,5.2292351722717285,120.83103942871094
S13,window35,35,2,meditation,4,5280.0,5340.0,1.0,0.0,0.0,0,0,0.021614583333333333,0,78,0,1.0,0.8831168831168831,1.0,0.768262987012987,0.9801614605129952,1.0,0.45636045932769775,0.45752996352266806,1,0.42915497245642165,0.6016546195584761,0.7594621664855504,-0.3364875135456787,0.7594621664855504,0,0.5323867201805115,0.5323867201805115,0.7940565193826008,0.4275887098828022,1,1.0,0,875.0,0.004761436954140663,0.006488216575235128,0.04264603927731514,0.036157820373773575,0.009171722456812859,0.0021033473312854767,0.015728289261460304,0.012823477387428284,5.720648288726807,39.36055374145508
S14,window1,1,0,baseline,1,60.0,120.0,1.0,0.0,0.0,0,0,0.02265625,0,69,0,1.0,0.9852941176470589,1.0,0.8708639705882353,0.8450287823682675,1.0,0.6637448072433472,0.7222511724856696,1,0.6668864643934248,0.4253541965278583,0.6270012132761338,0.8235874580262434,0.8235874580262434,0,1.1835660934448242,1.0,0.7476262817693039,-0.043154569113815544,1,1.0,0,825.0,0.0047135129570961,0.005256318487226963,0.032921064645051956,0.02766474522650242,0.0067612905986607075,0.0023308955132961273,0.02155151031911373,0.017991023138165474,5.868523120880127,136.65863037109375
S14,window2,2,0,baseline,1,120.0,180.0,1.0,0.0,0.0,0,0,0.022916666666666665,0,73,0,1.0,0.8055555555555556,1.0,0.8207465277777778,0.8656447153335467,0.6184611618518829,1.1902507543563843,0.7759249609171444,1,0.7006816401188748,0.8165908084964345,0.8103801444911305,0.6672647127540369,0.8165908084964345,0,1.8173668384552002,1.0,0.6819156368222862,-0.18730686403697594,1,1.0,0,914.0,0.0064953588880598545,0.006996127776801586,0.041205957531929016,0.034209828823804855,0.009065517224371433,0.0031954701989889145,0.02422501891851425,0.020139887928962708,5.9743781089782715,48.2851676940918
S14,window3,3,0,baseline,1,180.0,240.0,1.0,0.0,0.0,0,0,0.022395833333333334,0,75,0,1.0,0.8108108108108109,1.0,0.8000422297297297,0.8175971540985352,0.644232988357544,1.0019984245300293,0.7399687337154768,1,0.7935039805894603,0.5766375256446092,0.8414208923247019,0.843319472826828,0.843319472826828,0,1.472953200340271,1.0,0.6696034705538848,-0.1912992211427369,1,1.0,0,872.0,0.0060456800274550915,0.007364596705883741,0.046515125781297684,0.039150528609752655,0.00988093949854374,0.0030622929334640503,0.025330744683742523,0.020523440092802048,5.8186845779418945,144.5732421875
S14,window4,4,0,baseline,1,240.0,300.0,1.0,0.0,0.0,0,0,0.028385416666666666,0,72,0,1.0,1.0,1.0,0.8329665492957746,0.9903357405686346,0.29500536620616913,0.34457433223724365,0.6331422615945805,1,0.5230340060735917,-0.0868237243653925,0.2877087513476089,-0.4439054368876059,0.5230340060735917,0,0.37469983100891113,0.37469983100891113,0.8596307390696993,0.44663544568478986,1,1.0,0,796.0,0.003716197097674012,0.004346680827438831,0.02601601555943489,0.021669335663318634,0.005794805008918047,0.0017954562790691853,0.018263230100274086,0.015590228140354156,5.725982189178467,213.65371704101562
S14,window5,5,0,baseline,1,300.0,360.0,1.0,0.0,0.0,0,0,0.021354166666666667,0,72,0,1.0,0.9436619718309859,1.0,0.8400088028169014,0.9860645735955318,0.2819978892803192,0.7242037653923035,0.6331422615945805,1,0.809013259770921,0.452333616365353,0.8882620132184429,0.6244913121999097,0.8882620132184429,0,1.349288821220398,1.0,0.773284160811054,-0.19988579273174145,1,1.0,0,826.0,0.004873300902545452,0.006182598415762186,0.03789303079247475,0.0317104309797287,0.008261192589998245,0.002553770784288645,0.022332798689603806,0.018406983464956284,5.79386043548584,47.47489929199219
S14,window6,6,0,baseline,1,360.0,420.0,1.0,0.0,0.0,0,0,0.021875,0,76,0,1.0,0.9733333333333334,1.0,0.7908333333333334,0.9307483914425663,0.3723558187484741,0.49549058079719543,0.7092235539343408,1,0.41186964004665183,0.16388312417901094,0.6371357865371282,0.20681715831678532,0.6371357865371282,0,0.7782918214797974,0.7782918214797974,0.7907286686181234,0.039484231067962616,1,1.0,0,866.0,0.006111416034400463,0.006031049881130457,0.035527750849723816,0.029496699571609497,0.007527641020715237,0.0026512853801250458,0.02400069311261177,0.019450612366199493,6.020721435546875,43.772037506103516
S14,window7,7,0,baseline,1,420.0,480.0,1.0,0.0,0.0,0,0,0.03515625,0,72,0,1.0,1.0,1.0,0.8338468309859155,0.9763060199820547,0.38750582933425903,0.5622036457061768,0.7566440854611777,1,0.1977045371606431,-0.15894140103602789,0.04908334942313816,-0.22627704240217483,0.1977045371606431,0,0.7557128667831421,0.7557128667831421,0.8173205193163022,0.08524009554593626,1,1.0,0,730.0,0.003051378531381488,0.003391663543879986,0.02397911064326763,0.02058744616806507,0.0044981082901358604,0.0014250711537897587,0.014189175330102444,0.011783584952354431,5.5403547286987305,512.4789428710938
S14,window8,8,0,baseline,1,480.0,540.0,1.0,0.0,0.0,0,0,0.021875,0,75,0,1.0,0.8648648648648649,1.0,0.8019425675675675,0.786379882390513,0.6343090832233429,0.7323567867279053,0.5414278269932257,1,0.4070204931895012,0.3486586751490201,0.5547993225478229,0.01213653800465334,0.5547993225478229,0,1.1377912759780884,1.0,0.6818599106630999,-0.18536829913707653,1,1.0,0,902.0,0.005732864141464233,0.006705697625875473,0.0428071990609169,0.03610150143504143,0.008907667361199856,0.002886708825826645,0.02330002188682556,0.02021011896431446,5.747507572174072,349.607421875
S14,window9,9,0,baseline,1,540.0,600.0,1.0,0.0,0.0,0,0,0.022135416666666668,0,75,0,1.0,0.8918918918918919,1.0,0.7977195945945946,0.9562182745079157,0.4607415199279785,0.9897936582565308,0.6373110995310057,1,0.7587238111452732,0.5310986484578493,0.7604618226675308,0.8661869264496512,0.8661869264496512,0,1.6403180360794067,1.0,0.7436222391091315,-0.17819248382345898,1,1.0,0,862.0,0.005821111146360636,0.006503539625555277,0.043247755616903305,0.036744218319654465,0.008567470125854015,0.0025953021831810474,0.022613778710365295,0.01872965320944786,5.910285949707031,59.56182098388672
S14,window10,10,0,baseline,1,600.0,660.0,1.0,0.0,0.0,0,0,0.02109375,0,75,0,1.0,0.9054054054054054,1.0,0.8036317567567568,0.9078165730765457,0.5897850394248962,0.8109385967254639,0.6732673267326733,1,0.7163442335072144,0.573129707133024,0.6276661773209409,0.4520754775159046,0.7163442335072144,0,1.4252487421035767,1.0,0.7345071340851258,-0.15397797525301793,1,1.0,0,885.0,0.005620211362838745,0.006872363854199648,0.04062005877494812,0.03374769166111946,0.009270976297557354,0.002887757495045662,0.023882083594799042,0.020444098860025406,5.796827793121338,140.5281524658203
S14,window11,11,0,baseline,1,660.0,720.0,1.0,0.0,0.0,0,0,0.025520833333333333,0,69,0,1.0,0.9705882352941176,1.0,0.8669577205882353,0.9750987704837797,0.3653089106082916,0.5840706825256348,0.6659718603439291,1,0.7580268218065594,0.3685645892546598,0.6143172067374113,0.8312643562823661,0.8312643562823661,0,0.964317798614502,0.964317798614502,0.7843331454013307,-0.13803940775324897,1,1.0,0,824.0,0.004389586858451366,0.005215353798121214,0.03128797188401222,0.02607261762022972,0.00669591361656785,0.002367619425058365,0.020837053656578064,0.01734030246734619,5.872717380523682,84.90544891357422
S14,window12,12,0,baseline,1,720.0,780.0,1.0,0.0,0.0,0,0,0.020833333333333332,0,72,0,0.9859154929577465,0.9014084507042254,0.9859154929577465,0.8400088028169014,0.7989295548817714,0.8249749839305878,0.9986380338668823,0.7576862949452841,1,0.6630808625171445,0.4770354900165842,0.7667801213923127,0.5113083547245727,0.7667801213923127,0,1.5473610162734985,1.0,0.6974253453377709,-0.12641823149409337,1,1.0,0,841.0,0.004253034014254808,0.004990568850189447,0.0356048047542572,0.03061423823237419,0.0064954557456076145,0.0020711272954940796,0.019417742267251015,0.016586795449256897,5.911847114562988,59.80565643310547
S14,window13,13,0,baseline,1,780.0,840.0,1.0,0.0,0.0,0,0,0.022395833333333334,0,76,0,1.0,0.8133333333333334,1.0,0.7858333333333334,0.7664933839069644,0.8972893953323364,1.0475560426712036,0.6977592496091715,1,0.792364600571098,0.7317711587783308,0.7597285770035755,0.7495773630997999,0.792364600571098,0,1.7878133058547974,1.0,0.6552813485054226,-0.1400543051901748,1,1.0,0,916.0,0.006254575215280056,0.006408186629414558,0.040748339146375656,0.03434015065431595,0.007876033894717693,0.0033013010397553444,0.029164524748921394,0.024895992130041122,6.114264488220215,23.203176498413086
S14,window14,14,0,baseline,1,840.0,900.0,1.0,0.0,0.0,0,0,0.02109375,0,74,0,1.0,0.8493150684931506,1.0,0.8105736301369864,0.9114608530722852,0.5345057249069214,0.7692546248435974,0.6414799374674309,1,0.8540977274257389,0.5037969559705828,0.7515007217302375,0.6358558727203489,0.8540977274257389,0,1.2358137369155884,1.0,0.7131642833189459,-0.18371383495725313,1,1.0,0,932.0,0.006897635757923126,0.006915017496794462,0.04179790988564491,0.03488289192318916,0.00860660895705223,0.003268173662945628,0.028941452503204346,0.02411515638232231,6.094742774963379,73.80779266357422
S14,window15,15,0,baseline,1,900.0,960.0,1.0,0.0,0.0,0,0,0.02109375,0,79,0,1.0,0.8589743589743589,1.0,0.7560096153846154,0.7897859494020057,0.8711601793766022,1.158513069152832,0.8191766545075561,1,0.8333534865785053,0.7359623203350869,0.7901880432816927,0.45918154588330984,0.8333534865785053,0,1.7134432792663574,1.0,0.6805255284103454,-0.12707116011304032,1,1.0,0,890.0,0.004346177447587252,0.0052022202871739864,0.036991458386182785,0.03178923949599266,0.006782693788409233,0.0022981222718954086,0.018395084887742996,0.01518609095364809,5.819568634033203,382.0867004394531
S14,window16,16,0,baseline,1,960.0,1020.0,1.0,0.0,0.0,0,0,0.021875,0,79,0,1.0,0.8717948717948718,1.0,0.7612179487179487,0.7395424919512161,1.0,1.2290796041488647,0.7623762376237624,1,0.7678219336538314,0.4968883657876377,0.7527174991386394,0.4541657868654223,0.7678219336538314,0,1.8995342254638672,1.0,0.6705806963033135,-0.10357591547373435,1,1.0,0,857.0,0.0063301194459199905,0.006735661067068577,0.04257339984178543,0.03583773970603943,0.008543194271624088,0.0030813179910182953,0.02411748096346855,0.019694721326231956,5.982043743133545,37.36257553100586
S14,window17,17,0,baseline,1,1020.0,1080.0,1.0,0.0,0.0,0,0,0.03463541666666667,0,73,0,1.0,0.9861111111111112,1.0,0.8248697916666666,0.9890726656680167,0.26362766325473785,0.4964233338832855,0.6711829077644607,1,-0.20907335919819883,-0.2303119056907576,0.014407482075339498,-0.061358577312818026,0.014407482075339498,0,0.8384047150611877,0.8384047150611877,0.8073257726387306,-0.029396299497165712,1,1.0,0,799.0,0.004080012906342745,0.004393322858959436,0.02802170254290104,0.02362837828695774,0.005812606308609247,0.001783987507224083,0.01734001934528351,0.014130190946161747,5.722029685974121,274.4989013671875
S14,window18,18,0,baseline,1,1080.0,1140.0,1.0,0.0,0.0,0,0,0.02109375,0,74,0,1.0,0.9863013698630136,1.0,0.8086472602739726,0.9485809079962106,0.36078715324401855,0.735474705696106,0.7326732673267327,1,0.5547585764557613,0.20761221447293343,0.7761225722640964,0.48517562203075154,0.7761225722640964,0,1.4479132890701294,1.0,0.7790948203440687,-0.17676757373103857,1,1.0,0,860.0,0.00457305321469903,0.005564284045249224,0.03548542782664299,0.029921146109700203,0.007483457215130329,0.002294170670211315,0.017913661897182465,0.015425998717546463,5.797120571136475,121.13593292236328
S14,window19,19,0,baseline,1,1140.0,1200.0,1.0,0.0,0.0,0,0,0.02265625,0,75,0,1.0,0.8783783783783784,1.0,0.8034206081081081,0.8916334530998514,0.5875586271286011,0.9093306660652161,0.7816571130797291,1,0.736307983050333,0.42543568024387823,0.7207577320565304,0.4600467274114327,0.736307983050333,0,1.3828154802322388,1.0,0.7188413872813068,-0.1666884664293733,1,1.0,0,845.0,0.00615103542804718,0.006545166485011578,0.04044262319803238,0.03389745578169823,0.008419117890298367,0.002851715311408043,0.023873111233115196,0.01965991035103798,5.923831939697266,90.74144744873047
S14,window20,20,1,stress,2,1920.0,1980.0,1.0,0.0,0.0,0,0,0.022395833333333334,0,113,0,1.0,0.7232142857142857,1.0,0.5320870535714286,0.6957389638764414,0.9598108530044556,5.4285125732421875,0.9854090672225118,1,0.8664114874348463,0.8486700604098076,0.9388375293014718,0.658587865565231,0.9388375293014718,1,6.599376201629639,1.0,0.5980074034486468,-0.1691482600654901,1,1.0,0,985.0,0.008528776466846466,0.00782661885023117,0.04753827303647995,0.03971165418624878,0.008801733143627644,0.0044034793972969055,0.03413974866271019,0.027495432645082474,6.325265407562256,22.40001106262207
S14,window21,21,1,stress,2,1980.0,2040.0,1.0,0.0,0.0,0,0,0.022395833333333334,0,106,0,1.0,0.7428571428571429,1.0,0.5619047619047619,0.6964022828443831,0.8525061011314392,5.576970100402832,0.9911412193850964,1,0.8734288951950353,0.8225879620500328,0.9295077280945084,0.5338087284426744,0.9295077280945084,1,6.77541446685791,1.0,0.6060635419961721,-0.18991576114890152,1,1.0,0,988.0,0.008908534422516823,0.007937752641737461,0.04741597920656204,0.03947822377085686,0.009012982249259949,0.004428761079907417,0.032912202179431915,0.02717563509941101,6.302985668182373,78.63470458984375
S14,window22,22,1,stress,2,2040.0,2100.0,1.0,0.0,0.0,0,0,0.022135416666666668,0,111,0,1.0,0.7454545454545455,1.0,0.54375,0.7843460212639523,0.8771184682846069,4.988502025604248,0.9916623241271496,1,0.9151890737762296,0.8933432350487658,0.9443847570487796,0.6912392028526568,0.9443847570487796,1,6.040780067443848,1.0,0.633485624561004,-0.16099751397649653,1,1.0,0,955.0,0.00865794438868761,0.008752789348363876,0.050022635608911514,0.041269849985837936,0.010211154818534851,0.004816532135009766,0.03296593204140663,0.02612083964049816,6.206328868865967,69.83365631103516
S14,window23,23,1,stress,2,2100.0,2160.0,1.0,0.0,0.0,0,0,0.022395833333333334,0,118,0,1.0,0.8205128205128205,1.0,0.5101495726495726,0.759989518430904,0.9396942257881165,4.072516918182373,0.9812402292860865,1,0.9100315314148807,0.7485110972531849,0.9598397481441343,0.7325312582095257,0.9598397481441343,1,4.8200249671936035,1.0,0.6562019837343994,-0.12892521779139865,1,1.0,0,1018.0,0.008495854213833809,0.007728951051831245,0.04677722230553627,0.039048273116350174,0.009122828021645546,0.004105783067643642,0.033189550042152405,0.026587897911667824,6.266341209411621,115.06124877929688
S14,window24,24,1,stress,2,2160.0,2220.0,1.0,0.0,0.0,0,0,0.022395833333333334,0,105,0,1.0,0.6923076923076923,1.0,0.5655048076923077,0.7364350008649728,0.9287408590316772,4.304384231567383,0.9807191245440333,1,0.896521661447426,0.936811637296279,0.9109195341450097,0.7340450587103493,0.936811637296279,1,5.15441370010376,1.0,0.5978535771825688,-0.17601372733352982,1,1.0,0,971.0,0.008695541881024837,0.008223681710660458,0.04695023596286774,0.038726553320884705,0.009915280155837536,0.004283573478460312,0.03279990330338478,0.027064939960837364,6.191895961761475,51.372467041015625
S14,window25,25,1,stress,2,2220.0,2280.0,1.0,0.0,0.0,0,0,0.022916666666666665,0,110,0,0.9908256880733946,0.8256880733944955,0.9908256880733946,0.5478784403669725,0.7588757071766474,0.9577713012695312,3.028794288635254,0.918186555497655,1,0.8104589306470819,0.7162806189257628,0.7447950688845021,0.72053091831329,0.8104589306470819,0,3.8490231037139893,1.0,0.6561030791254713,-0.12496668825542778,1,1.0,0,938.0,0.007001886144280434,0.007394494488835335,0.044113095849752426,0.03671860322356224,0.00974363274872303,0.002993449568748474,0.02473713830113411,0.020147670060396194,6.000189781188965,28.318843841552734
S14,window26,26,1,stress,2,2280.0,2340.0,1.0,0.0,0.0,0,0,0.020833333333333332,0,121,0,1.0,0.875,1.0,0.49583333333333335,0.8947585027000617,1.0,1.415137767791748,0.924960917144346,1,0.7766208999653597,0.49986245742592583,0.6018984188722948,0.45978262384894186,0.7766208999653597,0,1.7041726112365723,1.0,0.7184275508100185,-0.06381037432498449,1,1.0,0,948.0,0.006949234753847122,0.006814118009060621,0.04249070584774017,0.035676587373018265,0.008145401254296303,0.003558877855539322,0.028548115864396095,0.023503515869379044,6.180489540100098,44.4974250793457
S14,window27,27,1,stress,2,2340.0,2400.0,1.0,0.0,0.0,0,0,0.023697916666666666,0,123,0,1.0,0.9836065573770492,1.0,0.4887295081967213,0.9660763048373658,0.992804765701294,0.730847954750061,0.8509640437727983,1,0.37746707239323674,0.4478511439919653,0.39341977005254714,-0.04638216230392278,0.4478511439919653,0,1.0052404403686523,1.0,0.7832655144020294,-0.015197765152220377,1,1.0,0,920.0,0.007314604241400957,0.007682206109166145,0.04542166367173195,0.037739455699920654,0.00961822085082531,0.003805791959166527,0.03004356659948826,0.025290492922067642,6.060633182525635,46.584197998046875
S14,window28,28,1,stress,2,2400.0,2460.0,1.0,0.0,0.0,0,0,0.021354166666666667,0,119,0,1.0,0.9745762711864406,1.0,0.504634533898305,0.9686598473067095,0.9939655959606171,0.9246116876602173,0.8822303282959875,1,0.6342070884868055,0.27780865623066875,0.7393944805640148,0.6107778689749859,0.7393944805640148,0,1.2865300178527832,1.0,0.780428462666589,-0.016970757827236227,1,1.0,0,919.0,0.00688814464956522,0.00748071912676096,0.04566439613699913,0.038183677941560745,0.009416776709258556,0.0034005846828222275,0.03125391900539398,0.026748955249786377,6.053724765777588,62.17280960083008
S14,window29,29,1,stress,2,2460.0,2520.0,1.0,0.0,0.0,0,0,0.021354166666666667,0,111,0,1.0,0.9818181818181818,1.0,0.5367897727272727,0.9695189414652585,0.976545512676239,0.791006326675415,0.8832725377800938,1,0.47390376111843135,0.38633025587748115,0.4020951571731606,0.402295226206507,0.47390376111843135,0,0.9665165543556213,0.9665165543556213,0.7869312997312883,0.014545013725207667,1,1.0,0,912.0,0.0060413675382733345,0.0067153205163776875,0.042608022689819336,0.035892702639102936,0.0083922715857625,0.0032837623730301857,0.029321474954485893,0.025202494114637375,6.0707902908325195,41.01641082763672
S14,window30,30,2,meditation,4,4980.0,5040.0,1.0,0.0,0.0,0,0,0.022916666666666665,0,78,0,1.0,0.935064935064935,1.0,0.773336038961039,0.9698994668957556,0.4385156035423279,0.22194990515708923,0.3986451276706618,1,0.049004236530489416,0.3217417994856533,0.08431860160134251,-0.17239752720498663,0.3217417994856533,0,0.2298722118139267,0.2298722118139267,0.8420085929133081,0.6027510363150748,1,1.0,0,898.0,0.0061440132558345795,0.006685557775199413,0.038480229675769806,0.03179467096924782,0.008612528443336487,0.0030720187351107597,0.024193625897169113,0.020057566463947296,6.003493309020996,25.83980941772461
S14,window31,31,2,meditation,4,5040.0,5100.0,1.0,0.0,0.0,0,0,0.022916666666666665,0,78,0,1.0,0.987012987012987,1.0,0.768060064935065,0.981741274919261,0.36716553568840027,0.07080258429050446,0.29338196977592496,1,0.07131438067493698,-0.09849906216367196,0.33607232239623164,0.3615337125851721,0.3615337125851721,0,0.08185563236474991,0.08185563236474991,0.881142014044498,0.7514749663910616,1,1.0,0,885.0,0.005204223096370697,0.005903916899114847,0.035735998302698135,0.029832081869244576,0.007320182863622904,0.0030096489936113358,0.022685805335640907,0.018694764003157616,6.000158786773682,155.55551147460938
S14,window32,32,2,meditation,4,5100.0,5160.0,1.0,0.0,0.0,0,0,0.02421875,0,77,0,1.0,0.9736842105263158,1.0,0.7791940789473685,0.9872535938634708,0.35809215903282166,0.216112419962883,0.5388223032829599,1,-0.505505055146965,-0.18072782774348864,-0.08027733577303393,-0.17750597955714734,-0.08027733577303393,0,0.23472203314304352,0.23472203314304352,0.8621775590552633,0.5937196682389243,1,1.0,0,901.0,0.004898552782833576,0.0052965846844017506,0.03171338886022568,0.026416804641485214,0.0066323052160441875,0.0026228195056319237,0.02113404870033264,0.017272965982556343,5.995198726654053,159.7929229736328
S14,window33,33,2,meditation,4,5160.0,5220.0,1.0,0.0,0.0,0,0,0.030729166666666665,0,77,0,1.0,0.9868421052631579,1.0,0.7831003289473685,0.9897666629281039,0.31422263383865356,0.21964725852012634,0.48306409588327254,1,,-0.24978014607676258,-0.09171291927589185,-0.09044900558736937,-0.09044900558736937,0,0.12075503170490265,0.12075503170490265,0.8795913378132041,0.701294924065734,1,1.0,0,829.0,0.005346028134226799,0.005375510081648827,0.03152693808078766,0.02615142986178398,0.006740978453308344,0.0026329299435019493,0.02062632516026497,0.01731153577566147,5.908552646636963,238.86082458496094
S14,window34,34,2,meditation,4,5220.0,5280.0,1.0,0.0,0.0,0,0,0.028385416666666666,0,79,0,1.0,0.9743589743589743,1.0,0.7624198717948718,0.9614911386156615,0.4389260411262512,0.131746307015419,0.34288692027097445,1,0.1157120075002254,0.0021269042919592495,-0.024067790574277007,-0.053146687485525985,0.1157120075002254,0,0.10575692355632782,0.10575692355632782,0.8676152389726552,0.7366550636868425,1,1.0,0,852.0,0.005129791330546141,0.0054079764522612095,0.032926637679338455,0.027518659830093384,0.006645565386861563,0.0026419339701533318,0.021409958600997925,0.017624258995056152,5.9683051109313965,255.7294158935547
S14,window35,35,2,meditation,4,5280.0,5340.0,1.0,0.0,0.0,0,0,0.022395833333333334,0,77,0,1.0,0.9342105263157895,1.0,0.7843338815789473,0.9848613504180492,0.35414671897888184,0.10951997339725494,0.29546638874413755,1,0.5140246893565849,0.06929768360726972,0.4567865033549519,0.3338783954481997,0.5140246893565849,0,0.12319076061248779,0.12319076061248779,0.8568235395904817,0.6918244146314818,1,1.0,0,859.0,0.005360649432986975,0.0060116080567240715,0.03539910539984703,0.029387496411800385,0.007567973807454109,0.0030255895107984543,0.022269392386078835,0.018777506425976753,5.957366466522217,51.2391471862793
S15,window1,1,0,baseline,1,120.0,180.0,1.0,0.0,0.0,0,0,0.021614583333333333,0,78,0,0.948051948051948,0.5844155844155844,0.948051948051948,0.7727272727272727,0.6443609766739722,0.9999999403953552,1.4727795124053955,0.6909848879624805,1,0.8567544041907745,0.7527867966661718,0.7848220815732436,0.8936962611330912,0.8936962611330912,0,2.0041983127593994,1.0,0.5166849163788151,-0.22397470579760315,1,1.0,0,934.0,0.00488666445016861,0.007239271886646748,0.046780698001384735,0.039541423320770264,0.011243927292525768,0.0015156040899455547,0.01358657144010067,0.011170895770192146,5.4786057472229,139.2569122314453
S15,window2,2,0,baseline,1,180.0,240.0,1.0,0.0,0.0,0,0,0.021354166666666667,0,72,0,0.9436619718309859,0.676056338028169,0.9436619718309859,0.8378080985915493,0.8297474560719793,1.0,0.6466044187545776,0.5544554455445545,1,0.6542356397481432,0.8450318191176891,0.7719400321870418,0.7854514183521962,0.8450318191176891,0,1.062668800354004,1.0,0.6080791663990586,-0.1510138402073573,1,1.0,0,907.0,0.004520481452345848,0.005691285710781813,0.03997068107128143,0.03427939489483833,0.008573411963880062,0.0013917125761508942,0.011518189683556557,0.009605987928807735,5.618514537811279,59.908653259277344
S15,window3,3,0,baseline,1,240.0,300.0,1.0,0.0,0.0,0,0,0.02265625,0,75,0,0.9864864864864865,0.7567567567567568,0.9864864864864865,0.793285472972973,0.7795667263768018,0.9999999403953552,0.5959464311599731,0.5377800937988536,1,0.6566386813713615,0.7815558026432884,0.7344330608854794,0.4773807109304978,0.7815558026432884,0,1.2797324657440186,1.0,0.6338700179130405,-0.13078400898263642,1,1.0,0,906.0,0.003657297929748893,0.006142819300293922,0.03915511816740036,0.03301229700446129,0.00965791568160057,0.0012008212506771088,0.00895506702363491,0.007597059942781925,5.423630237579346,133.452392578125
S15,window4,4,0,baseline,1,300.0,360.0,1.0,0.0,0.0,0,0,0.021614583333333333,0,80,0,0.9873417721518988,0.810126582278481,0.9873417721518988,0.743868670886076,0.933921625170216,1.0,0.6516598463058472,0.5403856175091193,1,0.8026869495941591,0.5122415027448799,0.7454369827580704,0.778741555955688,0.8026869495941591,0,1.3606512546539307,1.0,0.701695474892837,-0.07601326459352187,1,1.0,0,864.0,0.0034029451198875904,0.006878956221044064,0.0473393015563488,0.04046034440398216,0.01101620215922594,0.001259602140635252,0.008801944553852081,0.007372878957539797,5.303557872772217,61.73162841796875
S15,window5,5,0,baseline,1,360.0,420.0,1.0,0.0,0.0,0,0,0.021354166666666667,0,87,0,1.0,0.7790697674418605,1.0,0.6867732558139535,0.9663082966278377,1.0,0.6671508550643921,0.5695674830640959,1,0.7850230264452233,0.5958434431593287,0.7736254905087627,0.9308509376780428,0.9308509376780428,1,1.0023102760314941,1.0,0.7015203959650956,-0.07470199561048241,1,1.0,0,920.0,0.0037050796672701836,0.006052223965525627,0.040770724415779114,0.03471849858760834,0.009058083407580853,0.0017853095196187496,0.01287104096263647,0.010412424802780151,5.509993076324463,211.24900817871094
S15,window6,6,0,baseline,1,420.0,480.0,1.0,0.0,0.0,0,0,0.021354166666666667,0,76,0,0.9866666666666667,0.68,0.9866666666666667,0.785625,0.8462413766823648,1.0,0.9123280048370361,0.6039603960396039,1,0.7280695610864457,0.8444127664852272,0.5800044836326582,0.7032124859415549,0.8444127664852272,0,1.4803528785705566,1.0,0.6232057463380428,-0.13710632249607546,1,1.0,0,931.0,0.0037892665714025497,0.006593636237084866,0.04241796210408211,0.03582432493567467,0.010164864361286163,0.001684539020061493,0.011397996917366982,0.009360981173813343,5.426802635192871,75.23804473876953
S15,window7,7,0,baseline,1,480.0,540.0,1.0,0.0,0.0,0,0,0.021875,0,83,0,1.0,0.8170731707317073,1.0,0.7164634146341463,0.9472977119356377,1.0,0.81214439868927,0.6498176133402814,1,0.8486936649810108,0.6711485725076416,0.7163638112417802,0.8885110290844911,0.8885110290844911,0,1.2179734706878662,1.0,0.7110185818733742,-0.0680536207965784,1,1.0,0,956.0,0.00585924182087183,0.007375598885118961,0.048304639756679535,0.04092904180288315,0.010744803585112095,0.002204024698585272,0.017884429544210434,0.015334331430494785,5.755663871765137,45.61774444580078
S15,window8,8,0,baseline,1,540.0,600.0,1.0,0.0,0.0,0,0,0.021875,0,87,0,0.9883720930232558,0.5465116279069767,0.9883720930232558,0.6696947674418605,0.6406898373312024,0.8223779201507568,2.531039237976074,0.8843147472642001,1,0.7608496219603107,0.8231560987971714,0.7685072758943874,0.7468612755622961,0.8231560987971714,0,3.2867519855499268,1.0,0.5084860209668026,-0.27260515365276605,1,1.0,0,968.0,0.008231842890381813,0.007675096858292818,0.04658030718564987,0.03890521079301834,0.009452547878026962,0.003697238862514496,0.031235821545124054,0.025528768077492714,6.197997570037842,9.253012657165527
S15,window9,9,0,baseline,1,600.0,660.0,1.0,0.0,0.0,0,0,0.021875,0,79,0,0.9871794871794872,0.6666666666666666,0.9871794871794872,0.7612179487179487,0.761399681466651,0.948516845703125,0.9132108688354492,0.7378843147472642,1,0.7558810617775374,0.8647513637559365,0.6831281267398803,0.36949872282685825,0.8647513637559365,0,1.3750466108322144,1.0,0.5925224685425595,-0.17508497077165863,1,1.0,0,880.0,0.0047275349497795105,0.006178725510835648,0.04357510060071945,0.037396375089883804,0.008849537000060081,0.001962895505130291,0.016934368759393692,0.014008416794240475,5.6521196365356445,87.06106567382812
S15,window10,10,0,baseline,1,660.0,720.0,1.0,0.0,0.0,0,0,0.02265625,0,85,0,0.9880952380952381,0.7976190476190477,0.9880952380952381,0.7020089285714286,0.9227544510405633,1.0,0.5189645886421204,0.45961438249088066,1,0.648670998063693,0.8572690627769598,0.7069700545604509,0.6010941239756731,0.8572690627769598,0,0.6816501617431641,0.6816501617431641,0.7253279858045194,0.2359432129217387,1,1.0,0,917.0,0.0035084709525108337,0.005922819022089243,0.03766002506017685,0.031737204641103745,0.008968009613454342,0.001635789405554533,0.012286472134292126,0.010260985232889652,5.5116777420043945,58.9031982421875
S15,window11,11,0,baseline,1,720.0,780.0,1.0,0.0,0.0,0,0,0.02109375,0,79,0,1.0,0.8205128205128205,1.0,0.766426282051282,0.6686438418483418,0.798509955406189,0.2889977693557739,0.4085461177696717,1,0.251866654342657,0.12069529518227778,0.1566476608961042,-0.14369644540390125,0.251866654342657,0,0.1933596283197403,0.1933596283197403,0.7094623179276567,0.6195826671477385,1,1.0,0,930.0,0.006468980107456446,0.007297931704670191,0.043065544217824936,0.03576761111617088,0.009064040146768093,0.0036151674576103687,0.025756075978279114,0.021330535411834717,6.090898513793945,34.985904693603516
S15,window12,12,0,baseline,1,780.0,840.0,1.0,0.0,0.0,0,0,0.021614583333333333,0,82,0,1.0,0.7777777777777778,1.0,0.7361111111111112,0.939414249151734,1.0,0.20019683241844177,0.2636789994788953,1,0.6789101304115694,0.036033321093305475,0.5843256579508274,0.3329874265890909,0.6789101304115694,0,0.192740336060524,0.192740336060524,0.7736613522505789,0.7254465595607429,1,1.0,0,916.0,0.006333491764962673,0.006566708907485008,0.04105718433856964,0.034490473568439484,0.00821798574179411,0.003043568227440119,0.0232554841786623,0.018401892855763435,6.063170433044434,53.71946716308594
S15,window13,13,0,baseline,1,840.0,900.0,1.0,0.0,0.0,0,0,0.020572916666666666,0,86,0,1.0,0.8470588235294118,1.0,0.6931985294117647,0.9601475757933072,1.0,0.6442184448242188,0.46743095362167797,1,0.7486304306578022,0.542766780339606,0.6521553049940894,0.8119371234087932,0.8119371234087932,0,0.8814440369606018,0.8814440369606018,0.7387233984536967,0.06271050404654854,1,1.0,0,900.0,0.0026957427617162466,0.0065994407050311565,0.04402194917201996,0.03742251172661781,0.010804356075823307,0.0012045137118548155,0.00871075689792633,0.007269141264259815,5.143179893493652,73.61331939697266
S15,window14,14,0,baseline,1,900.0,960.0,1.0,0.0,0.0,0,0,0.021354166666666667,0,82,0,0.9876543209876543,0.8888888888888888,0.9876543209876543,0.7368827160493827,0.9784014064759672,1.0,0.43746501207351685,0.45440333507034913,1,0.7292847152942477,0.5527074360677798,0.6118966219086023,0.7533815057508685,0.7533815057508685,0,0.6076616048812866,0.6076616048812866,0.7858406812077479,0.3511362776019027,1,1.0,0,906.0,0.003531200345605612,0.005846814718097448,0.03750205039978027,0.03165523707866669,0.008935500867664814,0.001600650604814291,0.012433234602212906,0.010105973109602928,5.401215553283691,59.18413543701172
S15,window15,15,0,baseline,1,960.0,1020.0,1.0,0.0,0.0,0,0,0.02109375,0,83,0,0.9878048780487805,0.6951219512195121,0.9878048780487805,0.7124618902439024,0.7251190483799158,1.0,1.163009524345398,0.5414278269932257,1,0.8062304044071071,0.774926386685981,0.8337787174539606,0.7791057924410818,0.8337787174539606,0,1.9157605171203613,1.0,0.5931454706115357,-0.16262267692941124,1,1.0,0,903.0,0.004707111045718193,0.005941478535532951,0.04141685739159584,0.03547538071870804,0.00850403867661953,0.0019415384158492088,0.014591490849852562,0.01166747510433197,5.712425231933594,58.83051681518555
S15,window16,16,0,baseline,1,1020.0,1080.0,1.0,0.0,0.0,0,0,0.022395833333333334,0,81,0,1.0,0.675,1.0,0.7373046875,0.7168041530982021,0.8437407314777374,1.0009300708770752,0.6466909848879625,1,0.7834193698499587,0.7368760219495536,0.6465293954558491,0.8081865887593158,0.8081865887593158,0,1.687803864479065,1.0,0.5850412459294606,-0.2073637788560151,1,1.0,0,940.0,0.0045677535235881805,0.006913881283253431,0.046781595796346664,0.039867714047431946,0.010226953774690628,0.001941711874678731,0.015081757679581642,0.01230219192802906,5.637058734893799,131.1223602294922
S15,window17,17,0,baseline,1,1080.0,1140.0,1.0,0.0,0.0,0,0,0.022395833333333334,0,82,0,0.9876543209876543,0.654320987654321,0.9876543209876543,0.7337962962962963,0.7138178164694299,1.0,1.428532361984253,0.7154768108389786,1,0.7988637698206515,0.8235552168528452,0.798978211320532,0.8055983044282246,0.8235552168528452,0,1.821926236152649,1.0,0.5734046042000882,-0.17771838538881535,1,1.0,0,894.0,0.006495240610092878,0.007490628398954868,0.048880890011787415,0.04139025881886482,0.010820846073329449,0.002052995143458247,0.01902887225151062,0.015714460983872414,5.730629920959473,90.95215606689453
S15,window18,18,0,baseline,1,1140.0,1200.0,1.0,0.0,0.0,0,0,0.021875,0,85,0,1.0,0.7142857142857143,1.0,0.7053571428571429,0.615267490512933,0.8846002519130707,0.7297468185424805,0.6258467952058364,1,0.8234212389864797,0.796606371598678,0.7766746508182859,0.6985527268053148,0.8234212389864797,0,1.1176701784133911,1.0,0.5702945328681657,-0.21074735010778478,1,1.0,0,902.0,0.004567939788103104,0.006715928204357624,0.044627830386161804,0.037911903113126755,0.009780919179320335,0.00199468107894063,0.01471923477947712,0.01188675221055746,5.655344486236572,69.438720703125
S15,window19,19,0,baseline,1,1200.0,1260.0,1.0,0.0,0.0,0,0,0.021614583333333333,0,84,0,1.0,0.8433734939759037,1.0,0.7191265060240963,0.9307689986668527,1.0,0.635689377784729,0.6727462219906201,1,0.7325868807928125,0.8412660140395011,0.6484741025588092,0.7034067935809605,0.8412660140395011,0,1.0033679008483887,1.0,0.7165800971904174,-0.06429570214051572,1,1.0,0,943.0,0.004575442057102919,0.005180893931537867,0.036549489945173264,0.031368598341941833,0.006984798237681389,0.0022086920216679573,0.015921812504529953,0.013185846619307995,5.756040573120117,409.8515319824219
S15,window20,20,1,stress,2,3120.0,3180.0,1.0,0.0,0.0,0,0,0.021875,0,85,0,0.9761904761904762,0.47619047619047616,0.9761904761904762,0.7033110119047619,0.6856703134270754,0.8944884240627289,4.6423563957214355,0.9348619072433559,1,0.953068633552497,0.8291330752251801,0.896935568885094,0.8654898836141158,0.953068633552497,1,5.88245964050293,1.0,0.49141537974240834,-0.2668650775323108,1,1.0,0,918.0,0.007000831887125969,0.007653999608010054,0.049190640449523926,0.041536640375852585,0.010047274641692638,0.0034108394756913185,0.023544903844594955,0.018730735406279564,5.963904857635498,54.270774841308594
S15,window21,21,1,stress,2,3180.0,3240.0,1.0,0.0,0.0,0,0,0.023697916666666666,0,81,0,0.9625,0.5375,0.9625,0.7376953125,0.6853762294998119,0.9758341908454895,5.110705375671387,0.9426784783741532,1,0.9279411964339516,0.841829473205089,0.8491693280371154,0.8071918429695898,0.9279411964339516,1,6.443243980407715,1.0,0.5131128688499436,-0.23094739491367466,1,1.0,0,965.0,0.008014311082661152,0.008249386213719845,0.05015174299478531,0.04190235584974289,0.010958250612020493,0.0033555952832102776,0.029706140980124474,0.02462693117558956,6.017655849456787,69.62372589111328
S15,window22,22,1,stress,2,3240.0,3300.0,1.0,0.0,0.0,0,0,0.021875,0,81,0,0.95,0.725,0.95,0.7439453125,0.7435130691539114,0.9834247827529907,2.8893918991088867,0.8686816050026055,1,0.9477955615199175,0.8097078276762405,0.8488413074326898,0.9233903246342444,0.9477955615199175,1,3.7554562091827393,1.0,0.6030539207461735,-0.16076553702327456,1,1.0,0,900.0,0.006650579161942005,0.007897065952420235,0.04825843125581741,0.04036136344075203,0.011361123993992805,0.0025858990848064423,0.022425446659326553,0.018941733986139297,5.746676921844482,40.632972717285156
S15,window23,23,1,stress,2,3300.0,3360.0,1.0,0.0,0.0,0,0,0.0234375,0,72,0,0.8732394366197183,0.4788732394366197,0.8732394366197183,0.8336267605633803,0.6627829268293249,0.8393354713916779,5.2161688804626465,0.9103699843668578,1,0.9206741776322326,0.7947335773445479,0.7447984591164177,0.8489859298519796,0.9206741776322326,1,6.553516387939453,1.0,0.46503206114738904,-0.30616054128981973,1,1.0,0,918.0,0.007784773595631123,0.008305227383971214,0.05309264361858368,0.044787418097257614,0.012034734711050987,0.002017246326431632,0.019245773553848267,0.016742577776312828,5.82514762878418,10.579702377319336
S15,window24,24,1,stress,2,3360.0,3420.0,1.0,0.0,0.0,0,0,0.022135416666666668,0,86,0,1.0,0.5058823529411764,1.0,0.6876838235294118,0.6757642661388066,0.9008888006210327,3.5460445880889893,0.8243877019280875,1,0.8641188102934106,0.8741720008625581,0.9077449545498557,0.7610453713446654,0.9077449545498557,1,4.442732810974121,1.0,0.5050822210181126,-0.2540720274276873,1,1.0,0,921.0,0.007706888951361179,0.00810990110039711,0.05435321852564812,0.04624331369996071,0.011676718480885029,0.002285133581608534,0.02607056498527527,0.02198581025004387,5.752085208892822,57.81522750854492
S15,window25,25,1,stress,2,3420.0,3480.0,1.0,0.0,0.0,0,0,0.020572916666666666,0,79,0,1.0,0.8205128205128205,1.0,0.7660256410256411,0.8412777566135777,1.0,0.3144818842411041,0.40906722251172484,1,0.7803062562736265,0.5774783459437166,0.5849175743479276,0.7706310077573357,0.7803062562736265,0,0.3460926115512848,0.3460926115512848,0.745979194034073,0.5603806737559558,1,1.0,0,916.0,0.0037056850269436836,0.005852928385138512,0.0421590693295002,0.036306142807006836,0.008630304597318172,0.001754780299961567,0.013003408908843994,0.01080763153731823,5.604609489440918,71.92723083496094
S15,window26,26,1,stress,2,3480.0,3540.0,1.0,0.0,0.0,0,0,0.022395833333333334,0,90,0,1.0,0.8089887640449438,1.0,0.6648525280898876,0.907126262405427,0.9683857560157776,0.48890578746795654,0.49765502866076083,1,0.6425376906097519,0.7464369069437362,0.6213929015676974,0.5284538803035571,0.7464369069437362,0,0.8093789219856262,0.8093789219856262,0.7147954921410431,0.10219571183315801,1,1.0,0,911.0,0.0028575086034834385,0.004856036975979805,0.03986600041389465,0.03500996530056,0.007426625117659569,0.0013724444434046745,0.010996861383318901,0.009291065856814384,5.071414947509766,554.70068359375
S15,window27,27,1,stress,2,3540.0,3600.0,1.0,0.0,0.0,0,0,0.02109375,0,86,0,1.0,0.8352941176470589,1.0,0.6954044117647059,0.9299266667795303,1.0,0.4728647768497467,0.5752996352266806,1,0.5949388257680878,0.8400128317452192,0.6355028899500081,0.6393723864498433,0.8400128317452192,0,0.5619286894798279,0.5619286894798279,0.7569027781446999,0.3711412125091724,1,1.0,0,875.0,0.00578824570402503,0.007072220556437969,0.04619544744491577,0.03912322595715523,0.010019402019679546,0.0025050826370716095,0.018143536522984505,0.014982905238866806,5.626742839813232,226.1964111328125
S15,window28,28,1,stress,2,3600.0,3660.0,1.0,0.0,0.0,0,0,0.02109375,0,76,0,0.9866666666666667,0.8666666666666667,0.9866666666666667,0.7870833333333334,0.9113496696328535,1.0,0.4122811555862427,0.5362167795726941,1,0.5770099590476927,0.5674459629792274,0.5025061355298513,-0.005731785642217195,0.5770099590476927,0,0.36377763748168945,0.36377763748168945,0.7810271371416871,0.5713931132598573,1,1.0,0,941.0,0.003230479545891285,0.005533164832741022,0.04009201377630234,0.034558847546577454,0.008649191819131374,0.001447741873562336,0.012481532990932465,0.01042145024985075,4.961016654968262,369.7169494628906
S15,window29,29,1,stress,2,3660.0,3720.0,1.0,0.0,0.0,0,0,0.021875,0,78,0,0.987012987012987,0.7272727272727273,0.987012987012987,0.7518262987012987,0.819833429018828,0.9755711257457733,0.8970428705215454,0.7024491922876498,1,0.5859659257471787,0.8308632060457276,0.7190853579201214,0.5066806127708483,0.8308632060457276,0,1.4569990634918213,1.0,0.6342617170173369,-0.13556444572443405,1,1.0,0,931.0,0.004016546532511711,0.005825522355735302,0.04227124899625778,0.036445725709199905,0.008476006798446178,0.0019183829426765442,0.013822530396282673,0.011181975714862347,5.638763427734375,143.51832580566406
S15,window30,30,1,stress,2,3720.0,3780.0,1.0,0.0,0.0,0,0,0.022135416666666668,0,84,0,1.0,0.8192771084337349,1.0,0.7063253012048193,0.8953525171358164,1.0,0.5487613677978516,0.6227201667535175,1,-0.5389804388858207,0.4453310211554812,0.41848764115280257,-0.42565486566955646,0.4453310211554812,0,0.5928900241851807,0.5928900241851807,0.7370275960957208,0.326731237628894,1,1.0,0,909.0,0.004305057227611542,0.00608799559995532,0.04082820564508438,0.03474021330475807,0.008847312070429325,0.0019215550273656845,0.015517775900661945,0.012968969531357288,5.637781143188477,67.38943481445312
S15,window31,31,2,meditation,4,4740.0,4800.0,1.0,0.0,0.0,0,0,0.02109375,0,70,0,1.0,0.7971014492753623,1.0,0.855072463768116,0.7545789884426531,1.0,0.2938321530818939,0.39343408025013027,1,0.32108637474150226,0.4638656507781935,0.5423112038003429,0.6182181352624229,0.6182181352624229,0,0.4477130174636841,0.4477130174636841,0.7004429744965723,0.4300621644295879,1,1.0,0,863.0,0.002027534879744053,0.005519933998584747,0.042192790657281876,0.03667285665869713,0.009232093580067158,0.0009325533173978329,0.007097334135323763,0.005854154005646706,4.927814483642578,97.06356048583984
S15,window32,32,2,meditation,4,4800.0,4860.0,1.0,0.0,0.0,0,0,0.026041666666666668,0,69,0,1.0,0.8529411764705882,1.0,0.8635110294117647,0.9175430696471434,1.0,0.20459292829036713,0.27462219906201146,1,-0.5152944888210754,0.14077542270962606,0.11177532326152372,-0.4817897973475761,0.14077542270962606,0,0.17370229959487915,0.17370229959487915,0.7990691615228903,0.7615658207580831,1,1.0,0,961.0,0.00628560408949852,0.005834826268255711,0.03471580520272255,0.028880979865789413,0.006595039740204811,0.003449654206633568,0.027740372344851494,0.022511815652251244,6.257486820220947,139.6146697998047
S15,window33,33,2,meditation,4,4860.0,4920.0,1.0,0.0,0.0,0,0,0.028645833333333332,0,64,0,1.0,0.8095238095238095,1.0,0.9379960317460317,0.9322008675613241,1.0,0.13330824673175812,0.2928608650338718,1,-0.04644032140290591,-0.12312994368559706,-0.08829552155004226,-0.07587433146499545,-0.04644032140290591,0,0.10985961556434631,0.10985961556434631,0.7924838225214864,0.8160477441831275,1,1.0,0,903.0,0.006425934378057718,0.00582761038094759,0.03403080627322197,0.028203194960951805,0.006794276647269726,0.0032375864684581757,0.026407429948449135,0.02191081829369068,6.169169902801514,107.86463165283203
S15,window34,34,2,meditation,4,4920.0,4980.0,1.0,0.0,0.0,0,0,0.03177083333333333,0,66,0,1.0,0.8307692307692308,1.0,0.9086538461538461,0.9491379596687297,1.0,0.31466183066368103,0.460656591974987,1,-0.30036285764590226,,-0.288866251395981,-0.36174386389552504,-0.288866251395981,0,0.18389640748500824,0.18389640748500824,0.7986594394598104,0.7526188516629435,1,1.0,0,899.0,0.006233319640159607,0.006129794288426638,0.03339824080467224,0.02726844698190689,0.007139037363231182,0.003602776676416397,0.02452646754682064,0.020009521394968033,6.140188694000244,125.98839569091797
S15,window35,35,2,meditation,4,4980.0,5040.0,1.0,0.0,0.0,0,0,0.024739583333333332,0,68,0,1.0,0.9402985074626866,1.0,0.882929104477612,0.9581984723785179,1.0,0.2827598750591278,0.4200104220948411,1,-0.56730282990037,-0.48029425115017177,-0.0838276553414673,-0.6576792727253211,-0.0838276553414673,0,0.18621927499771118,0.18621927499771118,0.8449570171988589,0.7854198953357243,1,1.0,0,918.0,0.005093172192573547,0.005432546138763428,0.03133285045623779,0.025900302454829216,0.006247614044696093,0.0030672471038997173,0.024142522364854813,0.019914817065000534,6.153780937194824,231.38449096679688
S16,window1,1,0,baseline,1,120.0,180.0,1.0,0.0,0.0,0,0,0.023177083333333334,0,76,0,1.0,0.6133333333333333,1.0,0.7785416666666667,0.6203244054184505,1.0,0.8452070951461792,0.658676393955185,1,0.8070215764715851,0.7110232234319971,0.7504432412967948,0.7821714341248597,0.8070215764715851,0,1.4002147912979126,1.0,0.5314306549588684,-0.21091889864538738,1,1.0,0,901.0,0.0056867655366659164,0.006357167381793261,0.04164344444870949,0.035286277532577515,0.008085548877716064,0.0028779851272702217,0.02415078692138195,0.020601168274879456,5.987125873565674,124.21273803710938
S16,window2,2,0,baseline,1,180.0,240.0,1.0,0.0,0.0,0,0,0.022135416666666668,0,65,0,1.0,0.875,1.0,0.931640625,0.9269585160751852,0.4174347221851349,0.4890643358230591,0.4559666492965086,1,0.6195901852665194,0.6606349308678099,0.6643957137501291,0.8438533265338863,0.8438533265338863,0,0.6434972286224365,0.6434972286224365,0.7637378319603119,0.15510108094264352,1,1.0,0,870.0,0.006002346053719521,0.0066843181848526,0.04120221734046936,0.03451789915561676,0.008774706162512302,0.0028657112270593643,0.021715719252824783,0.017661042511463165,5.9348225593566895,25.901351928710938
S16,window3,3,0,baseline,1,240.0,300.0,1.0,0.0,0.0,0,0,0.022395833333333334,0,72,0,0.9859154929577465,0.7323943661971831,0.9859154929577465,0.8340669014084507,0.6367112646044707,0.8589507937431335,0.7975155711174011,0.5648775403856175,1,0.826739926096084,0.5791101055863958,0.7550305637301281,0.7967744158838952,0.826739926096084,0,1.0231863260269165,1.0,0.5811542244517637,-0.2091830769623947,1,1.0,0,875.0,0.0062759132124483585,0.006609559990465641,0.03990856185555458,0.033299002796411514,0.008716447278857231,0.0026955725625157356,0.021918855607509613,0.01886335015296936,5.909735679626465,88.39240264892578
S16,window4,4,0,baseline,1,300.0,360.0,1.0,0.0,0.0,0,0,0.021614583333333333,0,73,0,1.0,0.6805555555555556,1.0,0.822265625,0.6469772635740283,0.9553146362304688,0.7121078372001648,0.6055237102657635,1,0.834337394329958,0.6423515020902923,0.8467408180917346,0.9034694105613288,0.9034694105613288,1,1.0066769123077393,1.0,0.5663154012944308,-0.195260358382209,1,1.0,0,926.0,0.006647323723882437,0.0070051043294370174,0.04171696677803993,0.03471186384558678,0.008730532601475716,0.003174545243382454,0.026107806712388992,0.021205656230449677,6.098225116729736,36.1116828918457
S16,window5,5,0,baseline,1,360.0,420.0,1.0,0.0,0.0,0,0,0.021354166666666667,0,69,0,1.0,0.75,1.0,0.8660386029411765,0.9039561376992431,0.4722875952720642,1.0597126483917236,0.6420010422094841,1,0.7878617902459979,0.8349241998537434,0.8154568886179219,0.6859352461559872,0.8349241998537434,0,1.5992838144302368,1.0,0.6711868413097729,-0.23093906675717313,1,1.0,0,873.0,0.005610858090221882,0.007227118127048016,0.04439140111207962,0.03716428205370903,0.010073475539684296,0.002382241189479828,0.019528891891241074,0.016371004283428192,5.812427520751953,26.611194610595703
S16,window6,6,0,baseline,1,420.0,480.0,1.0,0.0,0.0,0,0,0.021875,0,68,0,1.0,0.7014925373134329,1.0,0.886660447761194,0.8875789939267418,0.5635216236114502,0.7275274991989136,0.5966649296508598,1,0.8529193523453761,0.678031993875864,0.8223956888295049,0.8089236960742984,0.8529193523453761,0,1.1303503513336182,1.0,0.6468707131033956,-0.22677708442142208,1,1.0,0,935.0,0.00503429165109992,0.005859692115336657,0.038636963814496994,0.032777272164821625,0.007551206275820732,0.002560477238148451,0.019635235890746117,0.01639351062476635,6.049899578094482,38.433937072753906
S16,window7,7,0,baseline,1,480.0,540.0,1.0,0.0,0.0,0,0,0.02265625,0,78,0,0.987012987012987,0.5844155844155844,0.987012987012987,0.7741477272727273,0.7771260829956926,1.0,0.5033566951751709,0.4934861907243356,1,0.7506317528984302,0.7995119012259273,0.6015346271967634,0.6707494927093782,0.7995119012259273,0,0.6113864779472351,0.6113864779472351,0.6031680082728155,0.2056223155289607,1,1.0,0,954.0,0.006477846764028072,0.0077659678645431995,0.04676344618201256,0.038997478783130646,0.010439547710120678,0.0031755324453115463,0.02466440573334694,0.01981855183839798,5.841636657714844,120.15667724609375
S16,window8,8,0,baseline,1,540.0,600.0,1.0,0.0,0.0,0,0,0.021614583333333333,0,72,0,1.0,0.7323943661971831,1.0,0.8195422535211268,0.7480132884106503,1.0,1.5457415580749512,0.6644085461177697,1,0.9083954551265602,0.8175049333675436,0.8001469469287941,0.8086658442537886,0.9083954551265602,1,2.1828203201293945,1.0,0.6173617330020683,-0.1432783680381824,1,1.0,0,882.0,0.006539111956954002,0.006721611134707928,0.04496413469314575,0.03824252262711525,0.008597438223659992,0.0029582898132503033,0.023243313655257225,0.01898990385234356,6.001986503601074,36.76103210449219
S16,window9,9,0,baseline,1,600.0,660.0,1.0,0.0,0.0,0,0,0.020833333333333332,0,73,0,0.9722222222222222,0.5972222222222222,0.9722222222222222,0.8279079861111112,0.756098084773692,0.8947082757949829,0.5856326818466187,0.7180823345492444,1,0.7540394366948323,0.4692127220304916,0.8219912406903354,0.8590418233707114,0.8590418233707114,0,0.8253326416015625,0.8253326416015625,0.5776294946052847,-0.03901994034828271,1,1.0,0,988.0,0.006651414092630148,0.006831525359302759,0.04284459725022316,0.03601307049393654,0.008180743083357811,0.0036625275388360023,0.02995644137263298,0.025786321610212326,6.163427352905273,288.6993713378906
S16,window10,10,0,baseline,1,660.0,720.0,1.0,0.0,0.0,0,0,0.021614583333333333,0,62,0,1.0,0.8360655737704918,1.0,0.9633709016393442,0.7428508227606266,0.920034259557724,0.4248619079589844,0.6013548723293382,1,0.8469413370702366,0.38399593077813515,0.6996326801125249,0.31000091577823197,0.8469413370702366,0,0.5903170108795166,0.5903170108795166,0.6982497752484332,0.2762239318312185,1,1.0,0,894.0,0.005632922053337097,0.006179632619023323,0.039793431758880615,0.03361379727721214,0.008131620474159718,0.0024591581895947456,0.020768970251083374,0.017840256914496422,5.963171482086182,20.707109451293945
S16,window11,11,0,baseline,1,720.0,780.0,1.0,0.0,0.0,0,0,0.022395833333333334,0,74,0,1.0,0.7534246575342466,1.0,0.8127140410958904,0.9375874061416324,1.0,0.5486459136009216,0.5820739968733716,1,0.7752089531129278,0.5533091749904591,0.7922706130397238,0.7256623300613116,0.7922706130397238,0,0.7629061341285706,0.7629061341285706,0.7063554714433312,0.1475181146671115,1,1.0,0,887.0,0.006260378751903772,0.006551308557391167,0.04201579838991165,0.035464491695165634,0.008176595903933048,0.003108222968876362,0.02573993429541588,0.022193770855665207,6.060482025146484,39.8477668762207
S16,window12,12,0,baseline,1,780.0,840.0,1.0,0.0,0.0,0,0,0.022135416666666668,0,74,0,1.0,0.726027397260274,1.0,0.8043664383561644,0.6061977463551991,0.8232824504375458,0.6685449481010437,0.583637311099531,1,0.7131201614185413,0.7831288184491781,0.6423356750841288,0.6479086049398021,0.7831288184491781,0,0.9185732007026672,0.9185732007026672,0.5804129627404025,-0.14339493232639877,1,1.0,0,912.0,0.005196517799049616,0.006155070848762989,0.03910649195313454,0.03295142203569412,0.008135867305099964,0.0025341659784317017,0.019215181469917297,0.016568083316087723,5.981516361236572,28.193214416503906
S16,window13,13,0,baseline,1,840.0,900.0,1.0,0.0,0.0,0,0,0.021614583333333333,0,72,0,1.0,0.6619718309859155,1.0,0.8261443661971831,0.8554545140152214,0.4829496294260025,0.7157549858093262,0.5403856175091193,1,0.8305696279225019,0.5553672258569802,0.8397184265593751,0.8442155519778183,0.8442155519778183,0,0.9991331100463867,0.9991331100463867,0.621511775594294,-0.2659405248903062,1,1.0,0,965.0,0.005694329738616943,0.006857599597424269,0.043097443878650665,0.03623984381556511,0.008864201605319977,0.0031547024846076965,0.021899497136473656,0.017830321565270424,6.030162334442139,106.11136627197266
S16,window14,14,0,baseline,1,900.0,960.0,1.0,0.0,0.0,0,0,0.022395833333333334,0,68,0,1.0,0.7910447761194029,1.0,0.8901585820895522,0.8296129690745953,0.6460676789283752,0.5590171217918396,0.4924439812402293,1,0.8187160563150814,0.7748553801580976,0.8671496774136866,0.42129382815612965,0.8671496774136866,0,0.9737067818641663,0.9737067818641663,0.6679311229837231,-0.16747318702760272,1,1.0,0,907.0,0.004338932689279318,0.005537191405892372,0.043213825672864914,0.03767663240432739,0.007642343174666166,0.0019925013184547424,0.016055503860116005,0.013966047205030918,5.82459020614624,70.30183410644531
S16,window15,15,0,baseline,1,960.0,1020.0,1.0,0.0,0.0,0,0,0.022135416666666668,0,72,0,1.0,0.704225352112676,1.0,0.832306338028169,0.7633715196619504,0.729473352432251,2.1576530933380127,0.7800937988535696,1,0.8439535460903967,0.8330485132781418,0.8293314319148797,0.7954466049501355,0.8439535460903967,0,2.6129117012023926,1.0,0.6107015967436557,-0.21552117634264678,1,1.0,0,982.0,0.005965778604149818,0.006681374274194241,0.043353863060474396,0.03667248785495758,0.008908761665225029,0.0027223387733101845,0.023182325065135956,0.019275274127721786,6.019041061401367,43.35883331298828
S16,window16,16,0,baseline,1,1020.0,1080.0,1.0,0.0,0.0,0,0,0.021354166666666667,0,68,0,0.9850746268656716,0.6268656716417911,0.9850746268656716,0.8733675373134329,0.8622059276634209,0.6697880327701569,1.7030744552612305,0.7305888483585201,1,0.8417196227938707,0.9003916213423546,0.8387186494160205,0.6321048999358397,0.9003916213423546,1,2.228294610977173,1.0,0.6064229723288771,-0.2319268830259339,1,1.0,0,895.0,0.006756861228495836,0.006462781690061092,0.04216313734650612,0.03570035472512245,0.007909709587693214,0.0032946690917015076,0.025975091382861137,0.021402133628726006,6.099315166473389,36.422237396240234
S16,window17,17,0,baseline,1,1080.0,1140.0,1.0,0.0,0.0,0,0,0.021354166666666667,0,63,0,0.9838709677419355,0.9032258064516129,0.9838709677419355,0.9493447580645161,0.9945470002437509,0.20314395427703857,0.42679840326309204,0.4627410109431996,1,0.6779365265136948,0.7321744113177961,0.5999256681949096,0.37468651711637063,0.7321744113177961,0,0.6208285093307495,0.6208285093307495,0.7943457652690825,0.1463361647833188,1,1.0,0,866.0,0.004465114325284958,0.005783378146588802,0.037129275500774384,0.031345900148153305,0.008022806607186794,0.002135333139449358,0.016767628490924835,0.013925562612712383,5.777793884277344,33.81266403198242
S16,window18,18,0,baseline,1,1140.0,1200.0,1.0,0.0,0.0,0,0,0.02109375,0,80,0,1.0,0.5063291139240507,1.0,0.7458465189873418,0.6977585777895969,0.829934298992157,1.91908597946167,0.791558103178739,1,0.8034007087721645,0.8538256258558997,0.8323104587478267,0.5088867722233621,0.8538256258558997,0,2.6778621673583984,1.0,0.5118592189064993,-0.26617804662734623,1,1.0,0,924.0,0.006520722061395645,0.007358621805906296,0.047499917447566986,0.04014129564166069,0.009731166996061802,0.0031472183763980865,0.027304913848638535,0.022719357162714005,5.951267719268799,62.1072883605957
S16,window19,19,0,baseline,1,1200.0,1260.0,1.0,0.0,0.0,0,0,0.022395833333333334,0,73,0,1.0,0.6944444444444444,1.0,0.8133680555555556,0.6613949409914787,0.9167582392692566,0.7517770528793335,0.5992704533611256,1,0.8082589139685122,0.6543739542673261,0.7381346856904247,0.8986114124393305,0.8986114124393305,0,1.1691913604736328,1.0,0.5761962600752214,-0.1971283716014829,1,1.0,0,917.0,0.007385687902569771,0.007601387333124876,0.04509511590003967,0.03749372810125351,0.009443875402212143,0.0036591198295354843,0.028782445937395096,0.024468112736940384,6.042449951171875,287.9079284667969
S16,window20,20,1,stress,2,2040.0,2100.0,1.0,0.0,0.0,0,0,0.020572916666666666,0,100,0,1.0,0.6666666666666666,1.0,0.601010101010101,0.763366163404928,0.9013994634151459,1.7524654865264893,0.921313183949974,1,0.786935120847044,0.9428415827340212,0.8386940614451825,0.7157729147702114,0.9428415827340212,1,2.2503814697265625,1.0,0.5956765156881451,-0.18380859329498156,1,1.0,0,927.0,0.0047225640155375,0.005804392043501139,0.03675474971532822,0.030950356274843216,0.00805045384913683,0.0021786950528621674,0.01650967262685299,0.013495119288563728,5.73637580871582,124.13945007324219
S16,window21,21,1,stress,2,2100.0,2160.0,1.0,0.0,0.0,0,0,0.021354166666666667,0,106,0,1.0,0.7333333333333333,1.0,0.562797619047619,0.7180692403049392,0.9285965859889984,2.0093908309936523,0.9431995831162063,1,0.5722634130835873,0.9034014554837955,0.883804528845084,0.5017465982588242,0.9034014554837955,1,2.454040050506592,1.0,0.6087541054248152,-0.16833354342651563,1,1.0,0,957.0,0.007496966980397701,0.008014748804271221,0.04916122928261757,0.04114648327231407,0.010342472232878208,0.003651762381196022,0.02777448669075966,0.023068038746714592,5.9983415603637695,95.08942413330078
S16,window22,22,1,stress,2,2160.0,2220.0,1.0,0.0,0.0,0,0,0.022135416666666668,0,111,0,1.0,0.8454545454545455,1.0,0.5387784090909091,0.8422652346821471,0.9580225646495819,1.3374836444854736,0.9072433559145389,1,-0.0041021290577651515,0.7770551522196377,0.7131918245655212,0.0015173802036202277,0.7770551522196377,0,1.6458340883255005,1.0,0.6908613885864624,-0.09629168653070419,1,1.0,0,955.0,0.006329765077680349,0.008202292025089264,0.048523567616939545,0.04032127559185028,0.011039304547011852,0.0033682435750961304,0.024002552032470703,0.019869524985551834,5.927128314971924,69.42517852783203
S16,window23,23,1,stress,2,2220.0,2280.0,1.0,0.0,0.0,0,0,0.02109375,0,91,0,0.9888888888888889,0.7333333333333333,0.9888888888888889,0.6548611111111111,0.8076491409106162,0.903777003288269,1.164394497871399,0.8785825951016154,1,0.6067959913471715,0.8303299697607326,0.6958387136010548,0.14165967496207338,0.8303299697607326,0,1.537811517715454,1.0,0.633405853384296,-0.1543656861725009,1,1.0,0,947.0,0.004497808869928122,0.004823703318834305,0.03208854794502258,0.027264846488833427,0.006513802334666252,0.001895703375339508,0.014820887707173824,0.012120296247303486,5.880216121673584,311.56707763671875
S16,window24,24,1,stress,2,2280.0,2340.0,1.0,0.0,0.0,0,0,0.022135416666666668,0,85,0,0.9761904761904762,0.5714285714285714,0.9761904761904762,0.7007068452380952,0.8068164391460764,0.8171854615211487,0.9911776185035706,0.8384575299635226,1,0.14486308848748553,0.7603642642868381,0.603422830397539,0.023178634964289447,0.7603642642868381,0,1.5064563751220703,1.0,0.5658544555533467,-0.22733285816652715,1,1.0,0,959.0,0.00478095468133688,0.006384499371051788,0.041406597942113876,0.03502209857106209,0.00927762407809496,0.0018603522330522537,0.014634357765316963,0.011774467304348946,5.716568470001221,80.91149139404297
S16,window25,25,1,stress,2,2340.0,2400.0,1.0,0.0,0.0,0,0,0.020833333333333332,0,129,0,1.0,0.8828125,1.0,0.4642333984375,0.8802606002996576,0.9914707243442535,0.8902097344398499,0.8405419489317353,1,0.06396884768768167,0.5992956970380389,0.63162383140005,-0.06953521543466792,0.63162383140005,0,1.2498359680175781,1.0,0.7172031800898974,-0.06722341883902216,1,1.0,0,953.0,0.004154304973781109,0.005604967009276152,0.03822822496294975,0.032623257488012314,0.007965232245624065,0.0018927291966974735,0.014472344890236855,0.012066934257745743,5.741835117340088,92.9195327758789
S16,window26,26,1,stress,2,2400.0,2460.0,1.0,0.0,0.0,0,0,0.02109375,0,137,0,1.0,0.9485294117647058,1.0,0.4396829044117647,0.8901501047349127,1.0,0.7361398339271545,0.8791036998436685,1,0.5287011833943639,0.694187704612291,0.5381299124300147,-0.0426620705566508,0.694187704612291,0,0.9300645589828491,0.9300645589828491,0.7534503402280711,0.027031790730290828,1,1.0,0,964.0,0.005056725814938545,0.00590961379930377,0.03788985684514046,0.0319802425801754,0.007872446440160275,0.0026231054216623306,0.018633805215358734,0.015200713649392128,5.7813401222229,165.97702026367188
S16,window27,27,1,stress,2,2460.0,2520.0,1.0,0.0,0.0,0,0,0.022135416666666668,0,131,0,1.0,1.0,1.0,0.4561298076923077,0.8976208048748099,1.0,0.7030307054519653,0.8483585200625325,1,0.07691342605608587,0.2138888939218586,0.16003186134203598,-0.19299812900170463,0.2138888939218586,0,0.9082753658294678,0.9082753658294678,0.7784587048794962,0.06612983538923478,1,1.0,0,991.0,0.011755484156310558,0.010096830315887928,0.05820750445127487,0.04811067134141922,0.01156685035675764,0.005648422986268997,0.045391518622636795,0.03698654845356941,6.302676677703857,25.444894790649414
